type,session_id,sample_index,sample_time_us,processing_time_us,red_raw,ir_raw,ir_dc,ir_ac,ir_filtered,peak_custom,peak_sparkfun,peak_accepted,ibi_ms,bpm_instant,bpm_robust,hr_status,ppg_quality,ppg_quality_flags,spo2_result,spo2_status,spo2_quality,led_amplitude,sparkfun_check_count,sparkfun_available,hw_fifo_read_ptr,hw_fifo_write_ptr,hw_fifo_overflow,suspected_drops,missing_samples,mpu_time_us,ax_g,ay_g,az_g,acc_mag_g,gx_rad_s,gy_rad_s,gz_rad_s,gyro_mag_rad_s,mpu_window_peak_g,mpu_window_delta_g,mpu_window_gyro_rad_s,mpu_window_samples,mpu_dt_us,mpu_saturated,mpu_missed_deadlines,ppg_mod_ir_pct,ppg_mod_red_pct,ppg_ratio_r,spo2_maxim,spo2_maxim_valid,spo2_custom_candidate,maxim_hr,maxim_hr_valid,measurement_state,loop_last_us,loop_max_us,display_render_us,i2c_failures,red_prominence,red_threshold,red_snr,red_candidate,ir_prominence,ir_threshold,ir_snr,ir_candidate,peak_fused,detector_state,quarantine_remaining_ms,synchronized_count
PPG,1,3048,123470536,120,175575,194191,193046.578,1144.422,161.406,0,0,0,0,0.00,nan,1,2,0,nan,4,1,53,1,1,8,8,0,0,0,123502127,0.03760,-0.00879,0.95508,0.95586,-0.00772,0.00372,-0.00061,0.00859,0.96308,0.00426,0.00884,3,12120,0,207,0.13983,0.09487,0.67845,82,1,93.039,150,1,2,2596,185610,0,0,0.000,11.572,10.553,0,0.000,9.521,16.951,0,0,1,0,1
PPG,1,3049,123510536,120,175758,194415,193060.266,1354.734,224.578,0,0,0,0,0.00,nan,1,2,0,nan,4,1,53,1,1,9,9,0,0,0,123543659,0.04224,-0.01050,0.95264,0.95363,-0.00718,0.00238,0.00046,0.00758,0.95634,0.00151,0.00941,3,12129,0,207,0.13983,0.09487,0.67845,82,1,93.039,150,1,2,4299,185610,0,0,0.000,11.572,10.553,0,0.000,9.521,16.951,0,0,1,0,1
PPG,1,3050,123550536,121,175870,194609,193075.750,1533.250,330.625,0,0,0,0,0.00,nan,1,2,0,nan,4,1,53,1,1,10,10,0,0,0,123582539,0.04199,-0.00610,0.95508,0.95602,-0.00878,0.00238,-0.00034,0.00911,0.95810,0.00256,0.00911,3,12108,0,207,0.13983,0.09487,0.67845,82,1,93.039,150,1,2,2596,185610,0,0,0.000,11.572,10.553,0,0.000,9.521,16.951,0,0,1,0,1
PPG,1,3051,123590536,124,175942,194685,193091.844,1593.156,438.781,0,0,0,0,0.00,nan,1,2,0,nan,4,1,53,1,1,11,11,0,0,0,123624027,0.03809,-0.00610,0.96094,0.96171,-0.00852,0.00185,-0.00061,0.00874,0.96335,0.00733,0.01031,3,12124,0,207,0.13983,0.09487,0.67845,82,1,93.039,150,1,2,4301,185610,0,0,506.281,11.572,10.553,1,0.000,9.521,16.951,0,0,1,0,1
PPG,1,3052,123630536,117,175864,194565,193106.578,1458.422,506.297,0,0,0,0,0.00,nan,1,2,0,nan,4,1,53,1,1,12,12,0,0,0,123662959,0.04297,-0.00806,0.96094,0.96193,-0.00665,0.00105,-0.00114,0.00683,0.96193,0.00937,0.00758,3,12123,0,207,0.13983,0.09487,0.67845,82,1,93.039,150,1,2,4300,185610,0,0,0.000,11.572,10.553,0,0.000,9.521,16.951,0,0,1,0,1
PPG,1,3053,123670536,120,175916,194619,193121.703,1497.297,557.016,0,0,0,0,0.00,nan,1,2,0,nan,4,1,53,1,1,13,13,0,0,0,123701864,0.04639,-0.00562,0.96021,0.96134,-0.00718,0.00052,-0.00007,0.00720,0.96212,0.00308,0.00788,3,12133,0,207,0.13983,0.09487,0.67845,82,1,93.039,150,1,2,2596,185610,0,0,0.000,11.572,10.553,0,0.000,9.521,16.951,0,0,1,0,1
PPG,1,3054,123710536,117,175899,194619,193136.672,1482.328,586.547,0,0,0,0,0.00,nan,1,2,0,nan,4,1,53,1,1,14,14,0,0,0,123743405,0.03931,-0.00757,0.96289,0.96372,-0.00825,-0.00001,-0.00061,0.00827,0.96372,0.01255,0.00863,3,12161,0,207,0.13983,0.09487,0.67845,82,1,93.039,150,1,2,4297,185610,0,0,0.000,11.572,10.553,0,0.000,9.521,16.951,0,0,1,0,1
PPG,1,3055,123750536,522,176006,194798,193153.281,1644.719,593.625,0,0,0,0,0.00,nan,1,2,0,nan,4,1,53,1,1,15,15,0,0,0,123782277,0.04297,-0.00757,0.95752,0.95851,-0.00852,0.00265,-0.00087,0.00896,0.95851,0.00798,0.00896,3,12121,0,207,0.24526,0.13733,0.55991,88,1,96.002,125,1,2,2597,185610,0,0,0.000,11.572,10.553,0,0.000,9.521,16.951,0,0,1,0,1
PPG,1,3056,123790536,172,176034,194854,193170.281,1683.719,578.578,0,0,0,0,0.00,nan,1,2,0,nan,4,1,53,1,1,16,16,0,0,0,123824253,0.04004,-0.00464,0.95630,0.95715,-0.00772,0.00318,-0.00087,0.00839,0.97660,0.01809,0.00872,3,12131,0,207,0.24526,0.13733,0.55991,88,1,96.002,125,1,2,4294,185610,0,0,0.000,11.572,10.553,0,0.000,9.521,16.951,0,0,1,0,1
PPG,1,3057,123830536,119,175954,194743,193186.016,1556.984,532.375,0,0,0,0,0.00,nan,1,2,0,nan,4,1,53,1,1,17,17,0,0,0,123863471,0.04614,-0.00439,0.96118,0.96230,-0.00878,0.00185,-0.00034,0.00898,0.96230,0.00975,0.00898,3,12253,0,207,0.24526,0.13733,0.55991,88,1,96.002,125,1,2,4346,185610,0,0,0.000,11.572,10.553,0,0.000,9.521,16.951,0,0,1,0,1
PPG,1,3058,123870536,122,175887,194679,193200.953,1478.047,479.312,0,0,0,0,0.00,nan,1,2,0,nan,4,1,53,1,1,18,18,0,0,0,123902530,0.04419,-0.00537,0.95898,0.96002,-0.00905,0.00292,-0.00167,0.00965,0.96487,0.00431,0.00965,3,12199,0,207,0.24526,0.13733,0.55991,88,1,96.002,125,1,2,2598,185610,0,0,0.000,11.572,10.553,0,0.000,9.521,16.951,0,0,1,0,1
PPG,1,3059,123910536,124,175908,194737,193216.312,1520.688,465.531,0,0,0,0,0.00,nan,1,2,0,nan,4,1,53,1,1,19,19,0,0,0,123944079,0.04077,-0.00488,0.95435,0.95523,-0.00878,0.00372,-0.00007,0.00954,0.95911,0.00424,0.00954,3,12141,0,207,0.24526,0.13733,0.55991,88,1,96.002,125,1,2,4311,185610,0,0,0.000,11.572,10.553,0,0.000,9.521,16.951,0,0,1,0,1
PPG,1,3060,123950536,116,175902,194763,193231.781,1531.219,450.766,0,0,0,0,0.00,nan,1,2,0,nan,4,1,53,1,1,20,20,0,0,0,123983154,0.04126,-0.00146,0.95630,0.95719,-0.00825,0.00212,-0.00061,0.00854,0.96137,0.00648,0.00950,3,12150,0,207,0.24526,0.13733,0.55991,88,1,96.002,125,1,2,4300,185610,0,0,0.000,11.572,10.553,0,0.000,9.521,16.951,0,0,1,0,1
PPG,1,3061,123990536,119,175904,194738,193246.844,1491.156,419.203,0,0,0,0,0.00,nan,1,2,0,nan,4,1,53,1,1,21,21,0,0,0,124022270,0.04443,-0.00171,0.96289,0.96392,-0.00718,0.00372,-0.00141,0.00821,0.96392,0.00970,0.00821,3,12136,0,207,0.24526,0.13733,0.55991,88,1,96.002,125,1,2,2601,185610,0,0,0.000,11.572,10.553,0,0.000,9.521,16.951,0,0,1,0,1
PPG,1,3062,124030536,117,175882,194754,193261.922,1492.078,354.828,0,0,0,0,0.00,nan,1,2,0,nan,4,1,53,1,1,22,22,0,0,0,124064213,0.04297,-0.00684,0.96045,0.96143,-0.00798,0.00212,-0.00114,0.00834,0.96143,0.01265,0.00834,3,12272,0,207,0.24526,0.13733,0.55991,88,1,96.002,125,1,2,4338,185610,0,0,0.000,11.572,10.553,0,0.000,9.521,16.951,0,0,1,0,1
PPG,1,3063,124070536,144,175900,194803,193277.328,1525.672,281.031,1,0,1,1600,37.50,37.50,2,1,0,nan,4,1,53,1,1,23,23,0,0,0,124103512,0.03882,-0.00757,0.95923,0.96004,-0.00798,0.00158,-0.00114,0.00822,0.96398,0.00842,0.00902,3,12276,0,207,0.24526,0.13733,0.55991,88,1,96.002,125,1,3,4338,185610,0,0,332.203,11.572,10.553,1,442.797,9.521,16.951,1,1,1,0,2
PPG,1,3064,124110536,122,175885,194790,193292.453,1497.547,222.703,0,0,0,0,37.50,37.50,2,1,0,nan,4,1,53,1,1,24,24,0,0,0,124142816,0.04248,-0.00732,0.95142,0.95239,-0.00825,-0.00001,-0.00034,0.00826,0.95993,0.00534,0.00826,3,12254,0,207,0.24526,0.13733,0.55991,88,1,96.002,125,1,3,2629,185610,0,0,0.000,13.132,14.537,0,0.000,11.728,25.281,0,0,1,0,2
PPG,1,3065,124150536,138,175872,194778,193307.312,1470.688,178.391,0,0,0,0,37.50,37.50,2,1,0,nan,4,1,53,1,1,25,25,0,0,0,124184808,0.04272,-0.01099,0.95679,0.95780,-0.00745,0.00185,-0.00034,0.00768,0.95907,0.00668,0.00866,3,12253,0,207,0.24526,0.13733,0.55991,88,1,96.002,125,1,3,4352,185610,0,0,0.000,13.132,14.537,0,0.000,11.728,25.281,0,0,1,0,2
PPG,1,3066,124190536,121,175856,194793,193322.172,1470.828,132.297,0,0,0,0,37.50,37.50,2,1,0,nan,4,1,53,1,1,26,26,0,0,0,124224202,0.04077,-0.00439,0.95898,0.95986,-0.00878,0.00345,-0.00007,0.00944,0.95986,0.00216,0.00965,3,12231,0,207,0.24526,0.13733,0.55991,88,1,96.002,125,1,3,4332,185610,0,0,0.000,13.132,14.537,0,0.000,11.728,25.281,0,0,1,0,2
PPG,1,3067,124230536,122,175852,194794,193336.891,1457.109,92.234,0,0,0,0,37.50,37.50,2,1,0,nan,4,1,53,1,1,27,27,0,0,0,124263585,0.04102,-0.00806,0.95801,0.95892,-0.00905,0.00238,-0.00034,0.00936,0.95932,0.00075,0.01010,3,12276,0,207,0.24526,0.13733,0.55991,88,1,96.002,125,1,3,4332,185610,0,0,0.000,13.132,14.537,0,0.000,11.728,25.281,0,0,1,0,2
PPG,1,3068,124270536,131,175862,194803,193351.547,1451.453,70.906,0,0,0,0,37.50,37.50,2,1,0,nan,4,1,53,1,1,28,28,0,0,0,124302867,0.04248,-0.00708,0.95557,0.95654,-0.00852,0.00238,0.00019,0.00885,0.96040,0.00919,0.00885,3,12265,0,207,0.24526,0.13733,0.55991,88,1,96.002,125,1,3,2609,185610,0,0,0.000,13.132,14.537,0,0.000,11.728,25.281,0,0,1,0,2
PPG,1,3069,124310536,133,175852,194780,193365.828,1414.172,56.375,0,0,0,0,37.50,37.50,2,1,0,nan,4,1,53,1,1,29,29,0,0,0,124344812,0.04321,-0.00732,0.95630,0.95730,-0.00825,0.00292,-0.00167,0.00891,0.96010,0.00280,0.00954,3,12260,0,207,0.24526,0.13733,0.55991,88,1,96.002,125,1,3,4360,185610,0,0,0.000,13.132,14.537,0,0.000,11.728,25.281,0,0,1,0,2
PPG,1,3070,124350536,126,175804,194735,193379.516,1355.484,40.359,0,0,0,0,37.50,37.50,2,1,0,nan,4,1,53,1,1,30,30,0,0,0,124390871,0.04297,-0.00806,0.95752,0.95852,-0.00745,0.00345,-0.00034,0.00822,0.96819,0.01053,0.00822,3,18933,0,207,0.24526,0.13733,0.55991,88,1,96.002,125,1,3,14546,185610,0,0,0.000,13.132,14.537,0,0.000,11.728,25.281,0,0,1,0,2
PPG,1,3071,124390536,131,175830,194734,193393.062,1340.938,29.906,0,0,0,0,37.50,37.50,2,1,0,nan,4,1,53,1,1,31,31,0,0,0,124427606,0.04272,-0.00659,0.95752,0.95849,-0.00878,0.00158,-0.00034,0.00893,0.96226,0.00374,0.00901,3,12223,0,207,0.24526,0.13733,0.55991,88,1,96.002,125,1,3,2619,185610,0,0,0.000,13.132,14.537,0,0.000,11.728,25.281,0,0,1,0,2
PPG,1,3072,124430536,120,175857,194760,193406.734,1353.266,17.578,0,0,0,0,37.50,37.50,2,1,0,nan,4,1,53,1,1,0,0,0,0,0,124464405,0.04395,-0.01172,0.95947,0.96055,-0.00772,0.00132,-0.00007,0.00783,0.96583,0.01590,0.00783,3,12276,0,207,0.24526,0.13733,0.55991,88,1,96.002,125,1,3,4330,185610,0,0,0.000,13.132,14.537,0,0.000,11.728,25.281,0,0,1,0,2
PPG,1,3073,124470536,120,175867,194786,193420.531,1365.469,8.234,0,0,0,0,37.50,37.50,2,1,0,nan,4,1,53,1,1,1,1,0,0,0,124503683,0.04614,-0.00146,0.95923,0.96034,-0.00692,0.00132,-0.00007,0.00704,0.96034,0.00558,0.00757,3,12243,0,207,0.24526,0.13733,0.55991,88,1,96.002,125,1,3,4320,185610,0,0,0.000,13.132,14.537,0,0.000,11.728,25.281,0,0,1,0,2
PPG,1,3074,124510536,129,175822,194758,193433.906,1324.094,-3.859,0,0,0,0,37.50,37.50,2,1,0,nan,4,1,53,1,1,2,2,0,0,0,124542920,0.04297,-0.00439,0.95728,0.95825,-0.00852,0.00398,-0.00061,0.00942,0.96288,0.01089,0.00942,3,12241,0,207,0.24526,0.13733,0.55991,88,1,96.002,125,1,3,2619,185610,0,0,0.000,12.768,15.284,0,0.000,11.728,25.281,0,0,1,0,2
PPG,1,3075,124550536,122,175698,194572,193445.281,1126.719,-25.562,0,0,0,0,37.50,37.50,2,1,0,nan,4,1,53,1,1,3,3,0,0,0,124584823,0.04297,-0.00537,0.95752,0.95850,-0.00718,0.00132,-0.00061,0.00733,0.96300,0.00450,0.00837,3,12244,0,207,0.24526,0.13733,0.55991,88,1,96.002,125,1,3,4337,185610,0,0,0.000,12.768,15.284,0,0.000,11.728,25.281,0,0,1,0,2
PPG,1,3076,124590536,120,175628,194525,193456.078,1068.922,-45.531,0,0,0,0,37.50,37.50,2,1,0,nan,4,1,53,1,1,4,4,0,0,0,124624111,0.04224,-0.00806,0.95825,0.95922,-0.00692,0.00212,-0.00087,0.00729,0.96023,0.01028,0.00740,3,12223,0,207,0.24526,0.13733,0.55991,88,1,96.002,125,1,3,4335,185610,0,0,0.000,12.768,15.284,0,0.000,11.728,25.281,0,0,1,0,2
PPG,1,3077,124630536,120,175659,194584,193467.359,1116.641,-59.156,0,0,0,0,37.50,37.50,2,1,0,nan,4,1,53,1,1,5,5,0,0,0,124663348,0.04102,-0.00537,0.95459,0.95549,-0.00878,0.00105,0.00046,0.00886,0.96134,0.00361,0.00886,3,12157,0,207,0.24526,0.13733,0.55991,88,1,96.002,125,1,3,4307,185610,0,0,0.000,12.768,15.284,0,0.000,11.728,25.281,0,0,1,0,2
PPG,1,3078,124670536,122,175571,194466,193477.344,988.656,-86.797,0,0,0,0,37.50,37.50,2,1,0,nan,4,1,53,1,1,6,6,0,0,0,124702454,0.04053,-0.00659,0.95532,0.95620,-0.00825,0.00318,-0.00061,0.00886,0.96279,0.00731,0.00886,3,12117,0,207,0.24526,0.13733,0.55991,88,1,96.002,125,1,3,2597,185610,0,0,0.000,12.768,15.284,0,0.000,11.728,25.281,0,0,1,0,2
PPG,1,3079,124710536,120,175647,194555,193488.125,1066.875,-106.969,0,0,0,0,37.50,37.50,2,1,0,nan,4,1,53,1,1,7,7,0,0,0,124743982,0.04224,-0.00977,0.95361,0.95460,-0.00825,0.00238,-0.00167,0.00875,0.96505,0.00885,0.00958,3,12124,0,207,0.24526,0.13733,0.55991,88,1,96.002,125,1,3,4298,185610,0,0,0.000,12.768,15.284,0,0.000,11.728,25.281,0,0,1,0,2
PPG,1,3080,124750536,514,175763,194717,193500.406,1216.594,-114.531,0,0,0,0,37.50,37.50,2,1,0,nan,4,1,53,1,1,8,8,0,0,0,124782983,0.04321,-0.00879,0.96289,0.96390,-0.00772,0.00238,0.00019,0.00808,0.96433,0.00974,0.00920,3,12132,0,207,0.35132,0.17911,0.50983,75,1,97.254,166,1,3,2609,185610,0,0,0.000,12.768,15.284,0,0.000,11.728,25.281,0,0,1,0,2
PPG,1,3081,124790536,169,175806,194785,193513.250,1271.750,-113.016,0,0,0,0,37.50,37.50,2,1,0,nan,4,1,53,1,1,9,9,0,0,0,124824965,0.04395,-0.00977,0.95459,0.95565,-0.00745,0.00158,-0.00141,0.00775,0.96429,0.00864,0.00775,3,12116,0,207,0.35132,0.17911,0.50983,75,1,97.254,166,1,3,4311,185610,0,0,0.000,12.768,15.284,0,0.000,11.728,25.281,0,0,1,0,2
PPG,1,3082,124830536,119,175829,194857,193526.688,1330.312,-77.469,0,0,0,0,37.50,37.50,2,1,0,nan,4,1,53,1,1,10,10,0,0,0,124863997,0.03906,-0.01050,0.95874,0.95959,-0.00718,0.00372,-0.00114,0.00817,0.95960,0.00388,0.00901,3,12146,0,207,0.35132,0.17911,0.50983,75,1,97.254,166,1,3,4327,185610,0,0,0.000,12.768,15.284,0,0.000,11.728,25.281,0,0,1,0,2
PPG,1,3083,124870536,122,175805,194818,193539.594,1278.406,-36.359,0,0,0,0,37.50,37.50,2,1,0,nan,4,1,53,1,1,11,11,0,0,0,124903031,0.04175,-0.00415,0.95874,0.95966,-0.00852,0.00292,-0.00087,0.00904,0.95966,0.00319,0.00904,3,12104,0,207,0.35132,0.17911,0.50983,75,1,97.254,166,1,3,2595,185610,0,0,0.000,12.768,15.284,0,0.000,11.728,25.281,0,0,1,0,2
PPG,1,3084,124910536,120,175768,194774,193551.938,1222.062,-8.422,0,0,0,0,37.50,37.50,2,1,0,nan,4,1,53,1,1,12,12,0,0,0,124944562,0.04370,-0.01074,0.95264,0.95370,-0.00798,0.00212,-0.00007,0.00826,0.96380,0.00667,0.00826,3,12113,0,207,0.35132,0.17911,0.50983,75,1,97.254,166,1,3,4294,185610,0,0,0.000,12.768,15.284,0,0.000,11.728,25.281,0,0,1,0,2
PPG,1,3085,124950536,121,175710,194697,193563.391,1133.609,28.625,0,0,0,0,37.50,37.50,2,1,0,nan,4,1,53,1,1,13,13,0,0,0,124983613,0.03931,-0.00757,0.95459,0.95543,-0.00745,0.00318,-0.00114,0.00818,0.95781,0.00411,0.00870,3,12123,0,207,0.35132,0.17911,0.50983,75,1,97.254,166,1,3,4298,185610,0,0,0.000,12.768,15.284,0,0.000,11.728,25.281,0,0,1,0,2
PPG,1,3086,124990536,121,175704,194698,193574.734,1123.266,53.812,0,0,0,0,37.50,37.50,2,1,0,nan,4,1,53,1,1,14,14,0,0,0,125022553,0.04248,-0.00586,0.95898,0.95994,-0.00825,0.00345,-0.00061,0.00896,0.95994,0.00402,0.00936,3,12105,0,207,0.35132,0.17911,0.50983,75,1,97.254,166,1,3,2599,185610,0,0,0.000,12.768,15.284,0,0.000,11.728,25.281,0,0,1,0,2
PPG,1,3087,125030536,125,175787,194820,193587.188,1232.812,67.219,0,0,0,0,37.50,37.50,2,1,0,nan,4,1,53,1,1,15,15,0,0,0,125064129,0.03931,-0.00781,0.96021,0.96104,-0.00852,0.00105,-0.00061,0.00860,0.96104,0.00629,0.00860,3,12124,0,207,0.35132,0.17911,0.50983,75,1,97.254,166,1,3,4298,185610,0,0,0.000,12.768,15.284,0,0.000,11.728,25.281,0,0,1,0,2
PPG,1,3088,125070536,121,175859,194951,193600.828,1350.172,83.547,0,0,0,0,37.50,37.50,2,1,0,nan,4,1,53,1,1,16,16,0,0,0,125103157,0.04419,-0.00732,0.96484,0.96588,-0.00745,0.00132,-0.00034,0.00757,0.96588,0.00617,0.00757,3,12122,0,207,0.35132,0.17911,0.50983,75,1,97.254,166,1,3,2604,185610,0,0,0.000,12.768,15.284,0,0.000,11.728,25.281,0,0,1,0,2
PPG,1,3089,125110536,121,175899,195017,193614.984,1402.016,94.547,0,0,0,0,37.50,37.50,2,1,0,nan,4,1,53,1,1,17,17,0,0,0,125144722,0.04297,-0.00659,0.95532,0.95631,-0.00798,0.00105,0.00046,0.00806,0.95965,0.01287,0.00806,3,12127,0,207,0.35132,0.17911,0.50983,75,1,97.254,166,1,3,4303,185610,0,0,0.000,12.768,15.284,0,0.000,11.728,25.281,0,0,1,0,2
PPG,1,3090,125150536,121,175865,194954,193628.375,1325.625,103.016,0,0,0,0,37.50,37.50,2,1,0,nan,4,1,53,1,1,18,18,0,0,0,125183738,0.03979,-0.00732,0.95630,0.95715,-0.00825,0.00265,-0.00034,0.00867,0.96408,0.00777,0.00902,3,12156,0,207,0.35132,0.17911,0.50983,75,1,97.254,166,1,3,4393,185610,0,0,0.000,12.768,15.284,0,0.000,11.728,25.281,0,0,1,0,2
PPG,1,3091,125190536,122,175860,194948,193641.578,1306.422,117.188,0,0,0,0,37.50,37.50,2,1,0,nan,4,1,53,1,1,19,19,0,0,0,125223017,0.04272,-0.00488,0.95850,0.95946,-0.00798,0.00132,-0.00034,0.00810,0.95946,0.00298,0.00838,3,12107,0,207,0.35132,0.17911,0.50983,75,1,97.254,166,1,3,2603,185610,0,0,0.000,12.768,15.284,0,0.000,11.728,25.281,0,0,1,0,2
PPG,1,3092,125230536,122,175870,194962,193654.781,1307.219,144.938,0,0,0,0,37.50,37.50,2,1,0,nan,4,1,53,1,1,20,20,0,0,0,125264659,0.04468,-0.01074,0.95557,0.95667,-0.00718,0.00265,-0.00034,0.00766,0.96061,0.00246,0.00766,3,12113,0,207,0.35132,0.17911,0.50983,75,1,97.254,166,1,3,4299,185610,0,0,0.000,12.768,15.284,0,0.000,11.728,25.281,0,0,1,0,2
PPG,1,3093,125270536,122,175850,194939,193667.625,1271.375,171.734,0,0,0,0,37.50,37.50,2,1,0,nan,4,1,53,1,1,21,21,0,0,0,125303687,0.04321,-0.00562,0.95801,0.95900,-0.00825,0.00318,-0.00087,0.00889,0.95900,0.00159,0.00909,3,12110,0,207,0.35132,0.17911,0.50983,75,1,97.254,166,1,3,4333,185610,0,0,0.000,12.768,15.284,0,0.000,11.728,25.281,0,0,1,0,2
PPG,1,3094,125310536,120,175852,194959,193680.531,1278.469,181.516,0,0,0,0,37.50,37.50,2,1,0,nan,4,1,53,1,1,22,22,0,0,0,125342783,0.04565,-0.00513,0.95728,0.95838,-0.00825,0.00105,-0.00061,0.00834,0.96084,0.00616,0.00877,3,12138,0,207,0.35132,0.17911,0.50983,75,1,97.254,166,1,3,2654,185610,0,0,0.000,12.768,15.284,0,0.000,11.728,25.281,0,0,1,0,2
PPG,1,3095,125350536,133,175864,195017,193693.891,1323.109,168.703,0,0,0,0,37.50,37.50,2,1,0,nan,4,1,53,1,1,23,23,0,0,0,125392225,0.03955,-0.00537,0.95239,0.95323,-0.00745,0.00158,-0.00087,0.00767,0.95999,0.00624,0.00911,3,19862,0,207,0.35132,0.17911,0.50983,75,1,97.254,166,1,3,15492,185610,0,0,0.000,12.768,15.284,0,0.000,11.728,25.281,0,0,1,0,2
PPG,1,3096,125390536,121,175877,195058,193707.531,1350.469,147.922,0,0,0,0,37.50,37.50,2,1,0,nan,4,1,53,1,1,24,24,0,0,0,125428977,0.04517,-0.00732,0.95679,0.95788,-0.00931,0.00105,-0.00061,0.00939,0.96117,0.00441,0.00939,3,12246,0,207,0.35132,0.17911,0.50983,75,1,97.254,166,1,3,2621,185610,0,0,0.000,12.768,15.284,0,0.000,11.728,25.281,0,0,1,0,2
PPG,1,3097,125430536,123,175871,195025,193720.703,1304.297,136.016,0,0,0,0,37.50,37.50,2,1,0,nan,4,1,53,1,1,25,25,0,0,0,125465776,0.04102,-0.00952,0.95703,0.95796,-0.00772,0.00238,-0.00087,0.00812,0.95999,0.00659,0.00945,3,12242,0,207,0.35132,0.17911,0.50983,75,1,97.254,166,1,3,4342,185610,0,0,0.000,12.768,15.284,0,0.000,11.728,25.281,0,0,1,0,2
PPG,1,3098,125470536,123,175870,195066,193734.156,1331.844,122.875,0,0,0,0,37.50,37.50,2,1,0,nan,4,1,53,1,1,26,26,0,0,0,125505201,0.04395,-0.00903,0.95435,0.95540,-0.00772,0.00238,-0.00114,0.00816,0.96499,0.00959,0.00816,3,12260,0,207,0.35132,0.17911,0.50983,75,1,97.254,166,1,3,4336,185610,0,0,0.000,12.768,15.284,0,0.000,11.728,25.281,0,0,1,0,2
PPG,1,3099,125510536,123,175873,195093,193747.750,1345.250,114.672,0,0,0,0,37.50,37.50,2,1,0,nan,4,1,53,1,1,27,27,0,0,0,125544537,0.04126,-0.00977,0.95483,0.95577,-0.00692,0.00238,-0.00167,0.00750,0.96129,0.00589,0.00945,3,12268,0,207,0.35132,0.17911,0.50983,75,1,97.254,166,1,3,4339,185610,0,0,0.000,12.768,15.284,0,0.000,11.728,25.281,0,0,1,0,2
PPG,1,3100,125550536,128,175889,195119,193761.469,1357.531,120.297,0,0,0,0,37.50,37.50,2,1,0,nan,4,1,53,1,1,28,28,0,0,0,125583876,0.04150,-0.00659,0.95703,0.95795,-0.00745,0.00318,-0.00034,0.00811,0.96020,0.00574,0.00861,3,12292,0,207,0.35132,0.17911,0.50983,75,1,97.254,166,1,3,4336,185610,0,0,0.000,12.768,15.284,0,0.000,11.728,25.281,0,0,1,0,2
PPG,1,3101,125590536,124,175921,195190,193775.750,1414.250,133.047,0,0,0,0,37.50,37.50,2,1,0,nan,4,1,53,1,1,29,29,0,0,0,125623183,0.04199,-0.00708,0.95313,0.95408,-0.00718,0.00212,-0.00087,0.00754,0.95950,0.00484,0.00785,3,12259,0,207,0.35132,0.17911,0.50983,75,1,97.254,166,1,3,2632,185610,0,0,0.000,12.768,15.284,0,0.000,11.728,25.281,0,0,1,0,2
PPG,1,3102,125630536,147,175936,195223,193790.219,1432.781,144.172,1,0,1,1560,37.50,37.50,2,1,512,nan,4,1,53,1,1,30,30,0,0,0,125665139,0.04297,-0.00586,0.95215,0.95314,-0.00772,0.00238,-0.00007,0.00808,0.96205,0.00892,0.00885,3,12264,0,207,0.35132,0.17911,0.50983,75,1,97.254,166,1,3,4341,185610,0,0,210.047,12.768,15.284,1,296.047,11.728,25.281,1,1,1,0,3
PPG,1,3103,125670536,123,175933,195235,193804.672,1430.328,148.609,0,0,0,0,37.50,37.50,2,1,512,nan,4,1,53,1,1,31,31,0,0,0,125704604,0.04004,-0.00708,0.95996,0.96082,-0.00825,0.00238,-0.00034,0.00859,0.96411,0.01097,0.00969,3,12280,0,207,0.35132,0.17911,0.50983,75,1,97.254,166,1,3,4338,185610,0,0,0.000,13.369,16.899,0,0.000,12.741,29.107,0,0,1,0,3
PPG,1,3104,125710536,128,175954,195282,193819.438,1462.562,159.922,0,0,0,0,37.50,37.50,2,1,512,nan,4,1,53,1,1,0,0,0,0,0,125743862,0.04053,-0.00610,0.96069,0.96157,-0.00825,0.00318,-0.00141,0.00895,0.96157,0.00886,0.00895,3,12231,0,207,0.35132,0.17911,0.50983,75,1,97.254,166,1,3,4340,185610,0,0,0.000,13.369,16.899,0,0.000,12.741,29.107,0,0,1,0,3
PPG,1,3105,125750536,518,175984,195330,193834.547,1495.453,165.984,0,0,0,0,37.50,37.50,2,1,512,nan,4,1,53,1,1,1,1,0,0,0,125783232,0.04321,-0.00586,0.95874,0.95973,-0.00798,0.00292,-0.00034,0.00851,0.95973,0.00582,0.00951,3,12268,0,207,0.38242,0.19439,0.50832,88,1,97.292,166,1,3,2651,185610,0,0,0.000,13.369,16.899,0,0.000,12.741,29.107,0,0,1,0,3
PPG,1,3106,125790536,173,176007,195406,193850.266,1555.734,175.297,0,0,0,0,37.50,37.50,2,1,512,nan,4,1,53,1,1,2,2,0,0,0,125825588,0.04150,-0.00977,0.95728,0.95822,-0.00772,0.00265,-0.00167,0.00833,0.96225,0.00289,0.00859,3,12209,0,207,0.38242,0.19439,0.50832,88,1,97.292,166,1,3,4334,185610,0,0,0.000,13.369,16.899,0,0.000,12.741,29.107,0,0,1,0,3
PPG,1,3107,125830536,124,176047,195474,193866.500,1607.500,193.312,0,0,0,0,37.50,37.50,2,1,512,nan,4,1,53,1,1,3,3,0,0,0,125864894,0.04468,-0.01025,0.95630,0.95740,-0.00798,0.00079,-0.00114,0.00810,0.95740,0.00414,0.01011,3,12212,0,207,0.38242,0.19439,0.50832,88,1,97.292,166,1,3,4333,185610,0,0,0.000,13.369,16.899,0,0.000,12.741,29.107,0,0,1,0,3
PPG,1,3108,125870536,123,176077,195525,193883.078,1641.922,212.484,0,0,0,0,37.50,37.50,2,1,512,nan,4,1,53,1,1,4,4,0,0,0,125904237,0.04199,-0.00586,0.95874,0.95968,-0.00772,0.00185,0.00046,0.00795,0.95968,0.00253,0.00876,3,12218,0,207,0.38242,0.19439,0.50832,88,1,97.292,166,1,3,4326,185610,0,0,0.000,13.369,16.899,0,0.000,12.741,29.107,0,0,1,0,3
PPG,1,3109,125910536,121,176069,195516,193899.406,1616.594,229.375,0,0,0,0,37.50,37.50,2,1,512,nan,4,1,53,1,1,5,5,0,0,0,125943486,0.04053,-0.00854,0.95557,0.95646,-0.00905,0.00105,-0.00007,0.00911,0.96708,0.00902,0.00911,3,12225,0,207,0.38242,0.19439,0.50832,88,1,97.292,166,1,3,4324,185610,0,0,0.000,13.369,16.899,0,0.000,12.741,29.107,0,0,1,0,3
PPG,1,3110,125950536,125,176062,195486,193915.266,1570.734,238.625,0,0,0,0,37.50,37.50,2,1,512,nan,4,1,53,1,1,6,6,0,0,0,125982681,0.04346,-0.01245,0.95728,0.95834,-0.00772,0.00158,0.00073,0.00791,0.96138,0.00402,0.00846,3,12213,0,207,0.38242,0.19439,0.50832,88,1,97.292,166,1,3,2633,185610,0,0,0.000,13.369,16.899,0,0.000,12.741,29.107,0,0,1,0,3
PPG,1,3111,125990536,195,176030,195439,193930.500,1508.500,236.516,0,0,0,0,37.50,37.50,2,1,512,nan,4,1,53,1,1,7,7,0,0,0,126024362,0.04614,-0.00928,0.95850,0.95965,-0.00825,0.00185,-0.00114,0.00853,0.95965,0.00609,0.00853,3,12116,0,207,0.38242,0.19439,0.50832,88,1,97.292,166,1,3,4359,185610,0,0,0.000,13.369,16.899,0,0.000,12.741,29.107,0,0,1,0,3
PPG,1,3112,126030536,122,176055,195481,193946.000,1535.000,232.125,0,0,0,0,37.50,37.50,2,1,512,nan,4,1,53,1,1,8,8,0,0,0,126063646,0.04175,-0.00146,0.95825,0.95916,-0.00825,0.00185,-0.00114,0.00853,0.96425,0.00460,0.00853,3,12112,0,207,0.38242,0.19439,0.50832,88,1,97.292,166,1,3,4315,185610,0,0,0.000,13.369,16.899,0,0.000,12.741,29.107,0,0,1,0,3
PPG,1,3113,126070536,126,176047,195468,193961.219,1506.781,214.547,0,0,0,0,37.50,37.50,2,1,512,nan,4,1,53,1,1,9,9,0,0,0,126102645,0.04321,-0.00781,0.96118,0.96218,-0.00772,0.00238,0.00046,0.00809,0.96218,0.00331,0.00809,3,12136,0,207,0.38242,0.19439,0.50832,88,1,97.292,166,1,3,2594,185610,0,0,0.000,13.369,16.899,0,0.000,12.741,29.107,0,0,1,0,3
PPG,1,3114,126110536,122,175985,195391,193975.516,1415.484,181.078,0,0,0,0,37.50,37.50,2,1,512,nan,4,1,53,1,1,10,10,0,0,0,126144261,0.04224,-0.00879,0.95410,0.95508,-0.00718,0.00292,-0.00034,0.00776,0.96115,0.00562,0.00979,3,12126,0,207,0.38242,0.19439,0.50832,88,1,97.292,166,1,3,4295,185610,0,0,0.000,13.369,16.899,0,0.000,12.741,29.107,0,0,1,0,3
PPG,1,3115,126150536,120,175941,195315,193988.906,1326.094,136.188,0,0,0,0,37.50,37.50,2,1,512,nan,4,1,53,1,1,11,11,0,0,0,126183193,0.04297,-0.00073,0.95825,0.95922,-0.00878,0.00238,-0.00034,0.00911,0.95922,0.00397,0.00911,3,12121,0,207,0.38242,0.19439,0.50832,88,1,97.292,166,1,3,2606,185610,0,0,0.000,13.369,16.899,0,0.000,12.741,29.107,0,0,1,0,3
PPG,1,3116,126190536,123,175889,195246,194001.484,1244.516,88.219,0,0,0,0,37.50,37.50,2,1,512,nan,4,1,53,1,1,12,12,0,0,0,126224850,0.03882,-0.00317,0.95703,0.95782,-0.00692,0.00185,-0.00061,0.00719,0.95965,0.00319,0.00816,3,12120,0,207,0.38242,0.19439,0.50832,88,1,97.292,166,1,3,4303,185610,0,0,0.000,13.369,16.899,0,0.000,12.741,29.107,0,0,1,0,3
PPG,1,3117,126230536,121,175883,195245,194013.922,1231.078,42.781,0,0,0,0,37.50,37.50,2,1,512,nan,4,1,53,1,1,13,13,0,0,0,126263788,0.04126,-0.00391,0.95557,0.95646,-0.00798,0.00105,0.00073,0.00808,0.96301,0.00942,0.00957,3,12122,0,207,0.38242,0.19439,0.50832,88,1,97.292,166,1,3,4304,185610,0,0,0.000,13.369,16.899,0,0.000,12.741,29.107,0,0,1,0,3
PPG,1,3118,126270536,123,175819,195132,194025.109,1106.891,-4.375,1,0,0,0,37.50,37.50,2,1,512,nan,4,1,53,1,1,14,14,0,0,0,126302784,0.04663,-0.00586,0.95557,0.95672,-0.00798,0.00158,-0.00034,0.00815,0.95895,0.00249,0.00892,3,12161,0,207,0.38242,0.19439,0.50832,88,1,97.292,166,1,3,2594,185610,0,0,0.000,13.369,16.899,0,123.953,12.741,29.107,1,0,1,0,3
PPG,1,3119,126310536,120,175769,195076,194035.625,1040.375,-61.375,0,0,0,0,37.50,37.50,2,1,512,nan,4,1,53,1,1,15,15,0,0,0,126344370,0.04395,-0.00659,0.95898,0.96001,-0.00852,0.00238,-0.00167,0.00900,0.96587,0.00915,0.00900,3,12121,0,207,0.38242,0.19439,0.50832,88,1,97.292,166,1,3,4302,185610,0,0,0.000,13.369,16.899,0,0.000,12.741,29.107,0,0,1,0,3
PPG,1,3120,126350536,153,175748,195082,194046.094,1035.906,-114.672,0,0,1,680,38.46,38.46,2,1,512,nan,4,1,53,1,1,16,16,0,0,0,126392631,0.04077,-0.01050,0.94946,0.95040,-0.00878,0.00052,-0.00034,0.00880,0.96435,0.01396,0.00906,3,21439,0,208,0.38242,0.19439,0.50832,88,1,97.292,166,1,3,14455,185610,0,0,63.078,13.369,16.899,1,0.000,12.741,29.107,0,1,1,0,4
PPG,1,3121,126390536,124,175727,195039,194056.016,982.984,-157.406,0,0,0,0,38.46,38.46,2,1,512,nan,4,1,53,1,1,17,17,0,0,0,126429143,0.04150,-0.00366,0.95483,0.95574,-0.00798,0.00132,-0.00034,0.00810,0.96543,0.01502,0.00829,3,12117,0,208,0.38242,0.19439,0.50832,88,1,97.292,166,1,3,2592,185610,0,0,0.000,12.977,15.845,0,0.000,12.552,28.394,0,0,1,0,4
PPG,1,3122,126430536,124,175708,195018,194065.641,952.359,-189.578,0,0,0,0,38.46,38.46,2,1,512,nan,4,1,53,1,1,18,18,0,0,0,126465498,0.04565,-0.00586,0.95288,0.95399,-0.00825,0.00158,-0.00034,0.00841,0.95775,0.00602,0.00845,3,12113,0,208,0.38242,0.19439,0.50832,88,1,97.292,166,1,3,4294,185610,0,0,0.000,12.977,15.845,0,0.000,12.552,28.394,0,0,1,0,4
PPG,1,3123,126470536,125,175688,195037,194075.359,961.641,-209.547,0,0,0,0,38.46,38.46,2,1,512,nan,4,1,53,1,1,19,19,0,0,0,126504479,0.04126,-0.00610,0.96167,0.96257,-0.00772,0.00265,-0.00221,0.00845,0.96257,0.00992,0.00874,3,12146,0,208,0.38242,0.19439,0.50832,88,1,97.292,166,1,3,4325,185610,0,0,0.000,12.977,15.845,0,0.000,12.552,28.394,0,0,1,0,4
PPG,1,3124,126510536,146,175709,195094,194085.547,1008.453,-221.719,0,0,0,0,38.46,38.46,2,1,512,nan,4,1,53,1,1,20,20,0,0,0,126543474,0.04224,-0.00464,0.95508,0.95602,-0.00931,0.00238,-0.00087,0.00965,0.95959,0.00564,0.00965,3,12123,0,208,0.38242,0.19439,0.50832,88,1,97.292,166,1,3,2599,185610,0,0,0.000,12.977,15.845,0,0.000,12.552,28.394,0,0,1,0,4
PPG,1,3125,126550536,128,175733,195131,194096.000,1035.000,-211.906,0,0,0,0,38.46,38.46,2,1,512,nan,4,1,53,1,1,21,21,0,0,0,126585105,0.04248,-0.00928,0.95728,0.95826,-0.00718,0.00185,-0.00114,0.00750,0.96826,0.01346,0.00904,3,12147,0,208,0.38242,0.19439,0.50832,88,1,97.292,166,1,3,4298,185610,0,0,0.000,12.977,15.845,0,0.000,12.552,28.394,0,0,1,0,4
PPG,1,3126,126590536,128,175726,195143,194106.469,1036.531,-189.188,0,0,0,0,38.46,38.46,2,1,512,nan,4,1,53,1,1,22,22,0,0,0,126624141,0.04150,-0.00854,0.95679,0.95772,-0.00825,0.00132,-0.00087,0.00840,0.96209,0.00447,0.00842,3,12134,0,208,0.38242,0.19439,0.50832,88,1,97.292,166,1,3,4296,185610,0,0,0.000,12.977,15.845,0,0.000,12.552,28.394,0,0,1,0,4
PPG,1,3127,126630536,126,175707,195141,194116.812,1024.188,-164.109,0,0,0,0,38.46,38.46,2,1,512,nan,4,1,53,1,1,23,23,0,0,0,126663154,0.04175,-0.00659,0.95557,0.95650,-0.00718,0.00292,-0.00087,0.00780,0.96688,0.01126,0.00832,3,12120,0,208,0.38242,0.19439,0.50832,88,1,97.292,166,1,3,2595,185610,0,0,0.000,12.977,15.845,0,0.000,12.552,28.394,0,0,1,0,4
PPG,1,3128,126670536,126,175681,195123,194126.875,996.125,-132.016,0,0,0,0,38.46,38.46,2,1,512,nan,4,1,53,1,1,24,24,0,0,0,126704851,0.04077,-0.00391,0.95850,0.95937,-0.00772,0.00212,-0.00007,0.00800,0.95937,0.00309,0.00885,3,12142,0,208,0.38242,0.19439,0.50832,88,1,97.292,166,1,3,4302,185610,0,0,0.000,12.977,15.845,0,0.000,12.552,28.394,0,0,1,0,4
PPG,1,3129,126710536,125,175666,195091,194136.516,954.484,-100.328,0,0,0,0,38.46,38.46,2,1,512,nan,4,1,53,1,1,25,25,0,0,0,126743857,0.04541,-0.00830,0.95874,0.95985,-0.00718,0.00318,-0.00114,0.00794,0.96268,0.00404,0.00794,3,12126,0,208,0.38242,0.19439,0.50832,88,1,97.292,166,1,3,4309,185610,0,0,0.000,12.977,15.845,0,0.000,12.552,28.394,0,0,1,0,4
PPG,1,3130,126750536,504,175706,195154,194146.688,1007.312,-67.016,0,0,0,0,38.46,38.46,2,1,512,nan,4,0,53,1,1,26,26,0,0,0,126782870,0.03735,-0.00488,0.95947,0.96021,-0.00905,0.00158,-0.00034,0.00919,0.96021,0.00411,0.00919,3,12132,0,208,0.31078,0.16015,0.51530,91,1,97.118,44,1,3,2597,185610,0,0,0.000,12.977,15.845,0,0.000,12.552,28.394,0,0,1,0,4
PPG,1,3131,126790536,182,175781,195300,194158.219,1141.781,-30.625,0,0,0,0,38.46,38.46,2,1,512,nan,4,0,53,2,2,28,28,0,0,0,126886260,0.04028,-0.00562,0.95605,0.95692,-0.00825,0.00238,-0.00141,0.00870,0.96190,0.00429,0.00950,4,61251,0,213,0.31078,0.16015,0.51530,91,1,97.118,44,1,3,61167,185610,0,0,0.000,12.977,15.845,0,0.000,12.552,28.394,0,0,1,0,4
PPG,1,3132,126830536,34,175781,195302,194169.656,1132.344,2.734,0,0,0,0,38.46,38.46,2,1,512,nan,4,0,53,2,2,28,28,0,0,0,126886260,0.04028,-0.00562,0.95605,0.95692,-0.00825,0.00238,-0.00141,0.00870,0.00000,0.00000,0.00000,0,61251,0,213,0.31078,0.16015,0.51530,91,1,97.118,44,1,3,61167,185610,0,0,0.000,12.977,15.845,0,0.000,12.552,28.394,0,0,1,0,4
PPG,1,3133,126870536,123,175780,195331,194181.266,1149.734,36.453,0,0,0,0,38.46,38.46,2,1,512,nan,4,0,53,1,1,29,29,0,0,0,126899761,0.04004,-0.00830,0.95728,0.95815,-0.00825,0.00238,-0.00194,0.00880,0.95815,0.00123,0.00880,1,13501,0,213,0.31078,0.16015,0.51530,91,1,97.118,44,1,3,10078,185610,0,0,0.000,12.977,15.845,0,0.000,12.552,28.394,0,0,1,0,4
PPG,1,3134,126910536,125,175768,195340,194192.859,1147.141,67.422,0,0,0,0,38.46,38.46,2,1,512,nan,4,0,53,1,1,30,30,0,0,0,126944425,0.04272,-0.00537,0.95361,0.95459,-0.00825,0.00212,0.00046,0.00853,0.96303,0.01039,0.00943,3,12130,0,214,0.31078,0.16015,0.51530,91,1,97.118,44,1,3,4297,185610,0,0,0.000,12.977,15.845,0,0.000,12.552,28.394,0,0,1,0,4
PPG,1,3135,126950536,122,175768,195333,194204.266,1128.734,96.516,0,0,0,0,38.46,38.46,2,1,512,nan,4,0,53,1,1,31,31,0,0,0,126983391,0.04126,-0.00439,0.96338,0.96427,-0.00798,0.00158,-0.00034,0.00815,0.96427,0.00513,0.00846,3,12134,0,214,0.31078,0.16015,0.51530,91,1,97.118,44,1,3,2596,185610,0,0,0.000,12.977,15.845,0,0.000,12.552,28.394,0,0,1,0,4
PPG,1,3136,126990536,125,175776,195365,194215.875,1149.125,129.734,0,0,0,0,38.46,38.46,2,1,512,nan,4,0,53,1,1,0,0,0,0,0,127025003,0.04248,-0.00732,0.95532,0.95629,-0.00852,0.00212,-0.00167,0.00893,0.96259,0.00435,0.00893,3,12175,0,214,0.31078,0.16015,0.51530,91,1,97.118,44,1,3,4301,185610,0,0,0.000,12.977,15.845,0,0.000,12.552,28.394,0,0,1,0,4
PPG,1,3137,127030536,122,175796,195440,194228.109,1211.891,160.828,0,0,0,0,38.46,38.46,2,1,512,nan,4,0,53,1,1,1,1,0,0,0,127063954,0.04175,-0.00488,0.95142,0.95234,-0.00825,0.00185,0.00019,0.00846,0.95995,0.00568,0.00866,3,12128,0,214,0.31078,0.16015,0.51530,91,1,97.118,44,1,3,4302,185610,0,0,0.000,12.977,15.845,0,0.000,12.552,28.394,0,0,1,0,4
PPG,1,3138,127070536,125,175845,195509,194240.922,1268.078,171.828,0,0,0,0,38.46,38.46,2,1,512,nan,4,0,53,1,1,2,2,0,0,0,127102903,0.04175,-0.00586,0.95947,0.96040,-0.00798,0.00238,0.00019,0.00833,0.96111,0.00877,0.00848,3,12125,0,214,0.31078,0.16015,0.51530,91,1,97.118,44,1,3,2595,185610,0,0,0.000,12.977,15.845,0,0.000,12.552,28.394,0,0,1,0,4
PPG,1,3139,127110536,155,175850,195543,194253.938,1289.062,182.922,0,1,0,0,38.46,38.46,2,1,512,nan,4,0,53,1,1,3,3,0,0,0,127144817,0.04224,-0.00195,0.96118,0.96211,-0.00825,0.00292,-0.00114,0.00882,0.96495,0.00508,0.00886,3,12311,0,214,0.31078,0.16015,0.51530,91,1,97.118,44,1,3,4350,185610,0,0,0.000,12.977,15.845,0,0.000,12.552,28.394,0,0,1,0,4
PPG,1,3140,127150536,129,175879,195600,194267.391,1332.609,195.438,0,0,0,0,38.46,38.46,2,1,512,nan,4,0,53,1,1,4,4,0,0,0,127184004,0.04297,-0.00708,0.95581,0.95680,-0.00931,0.00345,0.00046,0.00994,0.95982,0.00229,0.00994,3,12121,0,214,0.31078,0.16015,0.51530,91,1,97.118,44,1,3,4336,185610,0,0,0.000,12.977,15.845,0,0.000,12.552,28.394,0,0,1,0,4
PPG,1,3141,127190536,124,175869,195585,194280.562,1304.438,203.141,0,0,0,0,38.46,38.46,2,1,512,nan,4,0,53,1,1,5,5,0,0,0,127223067,0.04321,-0.00854,0.95020,0.95122,-0.00798,0.00212,-0.00061,0.00828,0.96201,0.00654,0.00828,3,12146,0,214,0.31078,0.16015,0.51530,91,1,97.118,44,1,3,2599,185610,0,0,0.000,12.977,15.845,0,0.000,12.552,28.394,0,0,1,0,4
PPG,1,3142,127230536,124,175878,195614,194293.891,1320.109,213.484,0,0,0,0,38.46,38.46,2,1,512,nan,4,0,53,1,1,6,6,0,0,0,127264837,0.04492,-0.01099,0.95947,0.96059,-0.00772,0.00265,-0.00087,0.00821,0.96297,0.00914,0.00920,3,12187,0,214,0.31078,0.16015,0.51530,91,1,97.118,44,1,3,4311,185610,0,0,0.000,12.977,15.845,0,0.000,12.552,28.394,0,0,1,0,4
PPG,1,3143,127270536,123,175898,195657,194307.516,1349.484,224.203,0,0,0,0,38.46,38.46,2,1,512,nan,4,0,53,1,1,7,7,0,0,0,127303936,0.03979,-0.00659,0.95215,0.95300,-0.00692,0.00238,0.00019,0.00732,0.95696,0.00436,0.00852,3,12120,0,214,0.31078,0.16015,0.51530,91,1,97.118,44,1,3,4297,185610,0,0,0.000,12.977,15.845,0,0.000,12.552,28.394,0,0,1,0,4
PPG,1,3144,127310536,130,175861,195661,194321.047,1339.953,227.422,0,0,0,0,38.46,38.46,2,1,512,nan,4,0,53,1,1,8,8,0,0,0,127343246,0.04370,-0.00415,0.95630,0.95731,-0.00852,0.00318,-0.00034,0.00910,0.95877,0.00376,0.00910,3,12236,0,214,0.31078,0.16015,0.51530,91,1,97.118,44,1,3,2634,185610,0,0,0.000,12.977,15.845,0,0.000,12.552,28.394,0,0,1,0,4
PPG,1,3145,127350536,129,175914,195765,194335.484,1429.516,232.297,0,0,0,0,38.46,38.46,2,1,512,nan,4,0,53,1,1,9,9,0,0,0,127392045,0.04077,-0.00854,0.95435,0.95525,-0.00798,0.00158,-0.00087,0.00819,0.95930,0.00626,0.00936,3,19116,0,214,0.31078,0.16015,0.51530,91,1,97.118,44,1,3,14720,185610,0,0,0.000,12.977,15.845,0,0.000,12.552,28.394,0,0,1,0,4
PPG,1,3146,127390536,128,175946,195844,194350.562,1493.438,240.234,0,0,0,0,38.46,38.46,2,1,512,nan,4,0,53,1,1,10,10,0,0,0,127428787,0.04321,-0.01001,0.95557,0.95660,-0.00798,0.00185,-0.00007,0.00819,0.96074,0.00549,0.00905,3,12266,0,214,0.31078,0.16015,0.51530,91,1,97.118,44,1,3,2624,185610,0,0,0.000,12.977,15.845,0,0.000,12.552,28.394,0,0,1,0,4
PPG,1,3147,127430536,143,175951,195811,194365.172,1445.828,236.875,0,0,0,0,38.46,38.46,2,1,512,nan,4,0,53,1,1,11,11,0,0,0,127465586,0.04199,-0.00732,0.95508,0.95603,-0.00825,0.00185,-0.00007,0.00845,0.96222,0.00563,0.00878,3,12243,0,214,0.31078,0.16015,0.51530,91,1,97.118,44,1,3,4329,185610,0,0,0.000,12.977,15.845,0,0.000,12.552,28.394,0,0,1,0,4
PPG,1,3148,127470536,130,175898,195745,194378.969,1366.031,228.641,0,0,0,0,38.46,38.46,2,1,512,nan,4,0,53,1,1,12,12,0,0,0,127504899,0.04224,-0.00830,0.95947,0.96044,-0.00772,0.00185,-0.00087,0.00798,0.96191,0.00588,0.00936,3,12220,0,214,0.31078,0.16015,0.51530,91,1,97.118,44,1,3,4327,185610,0,0,0.000,12.977,15.845,0,0.000,12.552,28.394,0,0,1,0,4
PPG,1,3149,127510536,124,175914,195740,194392.578,1347.422,214.188,0,0,0,0,38.46,38.46,2,1,512,nan,4,0,53,1,1,13,13,0,0,0,127544247,0.03784,-0.00928,0.95898,0.95978,-0.00745,0.00372,-0.00061,0.00835,0.95978,0.00315,0.00870,3,12261,0,214,0.31078,0.16015,0.51530,91,1,97.118,44,1,3,4341,185610,0,0,0.000,12.977,15.845,0,0.000,12.552,28.394,0,0,1,0,4
PPG,1,3150,127550536,126,175912,195754,194406.188,1347.812,198.047,0,0,0,0,38.46,38.46,2,1,512,nan,4,0,53,1,1,14,14,0,0,0,127583620,0.04248,-0.00464,0.95288,0.95384,-0.00745,0.00292,-0.00114,0.00808,0.95887,0.00504,0.00983,3,12243,0,214,0.31078,0.16015,0.51530,91,1,97.118,44,1,3,2613,185610,0,0,0.000,12.977,15.845,0,0.000,12.552,28.394,0,0,1,0,4
PPG,1,3151,127590536,128,175903,195770,194419.828,1350.172,190.125,0,0,0,0,38.46,38.46,2,1,512,nan,4,0,53,1,1,15,15,0,0,0,127625633,0.04370,-0.00269,0.96582,0.96681,-0.00905,0.00398,-0.00061,0.00990,0.96681,0.00777,0.00990,3,12280,0,214,0.31078,0.16015,0.51530,91,1,97.118,44,1,3,4336,185610,0,0,0.000,12.977,15.845,0,0.000,12.552,28.394,0,0,1,0,4
PPG,1,3152,127630536,124,175887,195764,194433.266,1330.734,166.875,0,0,0,0,38.46,38.46,2,1,512,nan,4,0,53,1,1,16,16,0,0,0,127664988,0.04224,-0.00903,0.95703,0.95801,-0.00665,0.00052,-0.00034,0.00668,0.95947,0.01037,0.00936,3,12198,0,214,0.31078,0.16015,0.51530,91,1,97.118,44,1,3,4313,185610,0,0,0.000,12.977,15.845,0,0.000,12.552,28.394,0,0,1,0,4
PPG,1,3153,127670536,123,175869,195760,194446.531,1313.469,133.422,0,0,0,0,38.46,38.46,2,1,512,nan,4,0,53,1,1,17,17,0,0,0,127704204,0.04126,-0.00391,0.95728,0.95817,-0.00852,0.00345,0.00019,0.00919,0.95817,0.00216,0.00919,3,12230,0,214,0.31078,0.16015,0.51530,91,1,97.118,44,1,3,4333,185610,0,0,0.000,12.977,15.845,0,0.000,12.552,28.394,0,0,1,0,4
PPG,1,3154,127710536,146,175838,195668,194458.750,1209.250,96.594,1,0,1,1400,38.46,38.46,2,1,512,nan,4,0,53,1,1,18,18,0,0,0,127743476,0.04272,-0.00708,0.95630,0.95728,-0.00772,0.00265,-0.00007,0.00816,0.95762,0.00094,0.00838,3,12238,0,214,0.31078,0.16015,0.51530,91,1,97.118,44,1,3,2630,185610,0,0,258.562,12.977,15.845,1,461.953,12.552,28.394,1,1,1,0,5
PPG,1,3155,127750536,516,175829,195682,194470.984,1211.016,70.156,0,0,0,0,38.46,38.46,2,1,512,nan,4,1,53,1,1,19,19,0,0,0,127785495,0.04346,-0.01123,0.95557,0.95662,-0.00852,0.00132,-0.00141,0.00873,0.95946,0.00226,0.00919,3,12223,0,214,0.18448,0.05889,0.31924,96,1,nan,136,1,3,4321,185610,0,0,0.000,13.855,18.204,0,0.000,14.499,35.746,0,0,1,0,5
PPG,1,3156,127790536,175,175828,195667,194482.938,1184.062,44.625,0,0,0,0,38.46,38.46,2,1,512,nan,4,1,53,1,1,20,20,0,0,0,127825186,0.03784,-0.00757,0.95166,0.95244,-0.00798,0.00265,-0.00141,0.00853,0.95485,0.00758,0.00853,3,12233,0,214,0.18448,0.05889,0.31924,96,1,nan,136,1,3,4339,185610,0,0,0.000,13.855,18.204,0,0.000,14.499,35.746,0,0,1,0,5
PPG,1,3157,127830536,126,175814,195700,194495.109,1204.891,23.906,0,0,0,0,38.46,38.46,2,1,512,nan,4,1,53,1,1,21,21,0,0,0,127864598,0.04224,-0.00269,0.95947,0.96041,-0.00878,0.00185,-0.00087,0.00902,0.96041,0.00615,0.00902,3,12220,0,214,0.18448,0.05889,0.31924,96,1,nan,136,1,3,4333,185610,0,0,0.000,13.855,18.204,0,0.000,14.499,35.746,0,0,1,0,5
PPG,1,3158,127870536,126,175817,195700,194507.156,1192.844,4.359,0,0,0,0,38.46,38.46,2,1,512,nan,4,1,53,1,1,22,22,0,0,0,127903824,0.03516,-0.01001,0.96021,0.96090,-0.00798,0.00238,-0.00141,0.00845,0.96090,0.01101,0.00892,3,12220,0,214,0.18448,0.05889,0.31924,96,1,nan,136,1,3,2627,185610,0,0,0.000,13.855,18.204,0,0.000,14.499,35.746,0,0,1,0,5
PPG,1,3159,127910536,125,175829,195705,194519.141,1185.859,-12.172,0,0,0,0,38.46,38.46,2,1,512,nan,4,1,53,1,1,23,23,0,0,0,127945672,0.04468,-0.00488,0.95947,0.96052,-0.00878,0.00185,-0.00007,0.00898,0.96240,0.00452,0.00898,3,12160,0,214,0.18448,0.05889,0.31924,96,1,nan,136,1,3,4304,185610,0,0,0.000,13.855,18.204,0,0.000,14.499,35.746,0,0,1,0,5
PPG,1,3160,127950536,126,175804,195726,194531.203,1194.797,-23.328,0,0,0,0,38.46,38.46,2,1,512,nan,4,1,53,1,1,24,24,0,0,0,127984809,0.03857,-0.00903,0.95947,0.96029,-0.00798,0.00158,-0.00034,0.00815,0.96029,0.00448,0.00892,3,12115,0,214,0.18448,0.05889,0.31924,96,1,nan,136,1,3,4306,185610,0,0,0.000,13.855,18.204,0,0.000,14.499,35.746,0,0,1,0,5
PPG,1,3161,127990536,149,175809,195716,194543.047,1172.953,-23.031,0,0,0,0,38.46,38.46,2,1,512,nan,4,1,53,1,1,25,25,0,0,0,128023786,0.04443,-0.00928,0.96191,0.96298,-0.00798,0.00212,-0.00114,0.00834,0.96298,0.01207,0.00887,3,12119,0,214,0.18448,0.05889,0.31924,96,1,nan,136,1,3,2594,185610,0,0,0.000,13.855,18.204,0,0.000,14.499,35.746,0,0,1,0,5
PPG,1,3162,128030536,126,175798,195736,194554.969,1181.031,-21.406,0,0,0,0,38.46,38.46,2,1,512,nan,4,1,53,1,1,26,26,0,0,0,128065559,0.04443,-0.00586,0.95239,0.95345,-0.00825,0.00158,0.00019,0.00840,0.96486,0.01141,0.00853,3,12137,0,214,0.18448,0.05889,0.31924,96,1,nan,136,1,3,4294,185610,0,0,0.000,13.855,18.204,0,0.000,14.499,35.746,0,0,1,0,5
PPG,1,3163,128070536,125,175814,195748,194566.906,1181.094,-14.375,0,0,0,0,38.46,38.46,2,1,512,nan,4,1,53,1,1,27,27,0,0,0,128104474,0.04248,-0.01147,0.95313,0.95414,-0.00825,0.00158,-0.00114,0.00848,0.96386,0.00972,0.00848,3,12120,0,214,0.18448,0.05889,0.31924,96,1,nan,136,1,3,4300,185610,0,0,0.000,13.855,18.204,0,0.000,14.499,35.746,0,0,1,0,5
PPG,1,3164,128110536,128,175790,195744,194578.672,1165.328,-12.250,0,0,0,0,38.46,38.46,2,1,512,nan,4,1,53,1,1,28,28,0,0,0,128143451,0.03955,-0.00684,0.95630,0.95714,-0.00772,0.00212,-0.00087,0.00805,0.95776,0.00468,0.00836,3,12163,0,214,0.18448,0.05889,0.31924,96,1,nan,136,1,3,2594,185610,0,0,0.000,13.855,18.204,0,0.000,14.499,35.746,0,0,1,0,5
PPG,1,3165,128150536,124,175777,195717,194590.062,1126.938,-7.422,0,0,0,0,38.46,38.46,2,1,512,nan,4,1,53,1,1,29,29,0,0,0,128184960,0.03833,-0.01025,0.95410,0.95493,-0.00905,0.00292,-0.00114,0.00958,0.95942,0.00648,0.00958,3,12111,0,214,0.18448,0.05889,0.31924,96,1,nan,136,1,3,4301,185610,0,0,0.000,13.855,18.204,0,0.000,14.499,35.746,0,0,1,0,5
PPG,1,3166,128190536,133,175753,195661,194600.766,1060.234,-4.562,0,0,0,0,38.46,38.46,2,1,512,nan,4,1,53,1,1,30,30,0,0,0,128223964,0.04443,-0.00488,0.95605,0.95710,-0.00772,0.00212,-0.00087,0.00805,0.96111,0.00619,0.00850,3,12119,0,214,0.18448,0.05889,0.31924,96,1,nan,136,1,3,2595,185610,0,0,0.000,13.477,19.231,0,0.000,14.499,35.746,0,0,1,0,5
PPG,1,3167,128230536,130,175722,195637,194611.125,1025.875,-8.578,0,0,0,0,38.46,38.46,2,1,512,nan,4,1,53,1,1,31,31,0,0,0,128265567,0.03760,-0.01050,0.95410,0.95490,-0.00878,0.00079,-0.00007,0.00882,0.96196,0.00600,0.00962,3,12104,0,214,0.18448,0.05889,0.31924,96,1,nan,136,1,3,4294,185610,0,0,0.000,13.477,19.231,0,0.000,14.499,35.746,0,0,1,0,5
PPG,1,3168,128270536,125,175718,195630,194621.312,1008.688,-15.109,0,0,0,0,38.46,38.46,2,1,512,nan,4,1,53,1,1,0,0,0,0,0,128304505,0.04053,-0.00781,0.95923,0.96012,-0.00772,0.00158,-0.00141,0.00800,0.96217,0.00727,0.00866,3,12115,0,214,0.18448,0.05889,0.31924,96,1,nan,136,1,3,4294,185610,0,0,0.000,13.477,19.231,0,0.000,14.499,35.746,0,0,1,0,5
PPG,1,3169,128310536,126,175736,195685,194631.953,1053.047,-19.641,0,0,0,0,38.46,38.46,2,1,512,nan,4,1,53,1,1,1,1,0,0,0,128343534,0.04541,-0.00537,0.95947,0.96056,-0.00772,0.00132,-0.00034,0.00784,0.96089,0.00511,0.00900,3,12139,0,214,0.18448,0.05889,0.31924,96,1,nan,136,1,3,2624,185610,0,0,0.000,13.477,19.231,0,0.000,14.499,35.746,0,0,1,0,5
PPG,1,3170,128350536,139,175745,195723,194642.859,1080.141,-21.672,0,0,0,0,38.46,38.46,2,1,512,nan,4,1,53,1,1,2,2,0,0,0,128391820,0.03882,-0.00659,0.95630,0.95711,-0.00825,0.00265,-0.00194,0.00888,0.96240,0.00529,0.00951,3,18826,0,214,0.18448,0.05889,0.31924,96,1,nan,136,1,3,14471,185610,0,0,0.000,12.951,20.870,0,0.000,14.499,35.746,0,0,1,0,5
PPG,1,3171,128390536,125,175757,195749,194653.922,1095.078,-19.906,0,0,0,0,38.46,38.46,2,1,512,nan,4,1,53,1,1,3,3,0,0,0,128428252,0.04199,-0.00977,0.95654,0.95751,-0.00772,0.00238,-0.00061,0.00810,0.95886,0.00143,0.00812,3,12123,0,214,0.18448,0.05889,0.31924,96,1,nan,136,1,3,2592,185610,0,0,0.000,12.951,20.870,0,0.000,14.499,35.746,0,0,1,0,5
PPG,1,3172,128430536,127,175758,195766,194665.047,1100.953,-13.000,0,0,0,0,38.46,38.46,2,1,512,nan,4,1,53,1,1,4,4,0,0,0,128464646,0.03833,-0.00342,0.96143,0.96220,-0.00825,0.00132,0.00019,0.00836,0.96220,0.01013,0.00869,3,12120,0,214,0.18448,0.05889,0.31924,96,1,nan,136,1,3,4297,185610,0,0,0.000,12.951,20.870,0,0.000,14.499,35.746,0,0,1,0,5
PPG,1,3173,128470536,126,175728,195732,194675.719,1056.281,-1.453,0,0,0,0,38.46,38.46,2,1,512,nan,4,1,53,1,1,5,5,0,0,0,128503595,0.04321,-0.00806,0.95679,0.95780,-0.00772,0.00105,-0.00007,0.00779,0.95955,0.00286,0.00826,3,12125,0,214,0.18448,0.05889,0.31924,96,1,nan,136,1,3,2599,185610,0,0,0.000,12.951,20.870,0,0.000,14.499,35.746,0,0,1,0,5
PPG,1,3174,128510536,136,175703,195711,194686.078,1024.922,6.969,1,0,0,0,38.46,38.46,2,1,512,nan,4,1,53,1,1,6,6,0,0,0,128545150,0.04370,-0.00146,0.95605,0.95705,-0.00772,0.00292,-0.00007,0.00825,0.96280,0.00600,0.00825,3,12136,0,214,0.18448,0.05889,0.31924,96,1,nan,136,1,3,4321,185610,0,0,0.000,12.951,20.870,0,18.766,14.499,35.746,1,0,1,0,5
PPG,1,3175,128550536,130,175724,195727,194696.484,1030.516,18.578,0,0,0,0,38.46,38.46,2,1,512,nan,4,1,53,1,1,7,7,0,0,0,128584129,0.04272,-0.00464,0.95410,0.95507,-0.00772,0.00265,-0.00087,0.00821,0.96160,0.00454,0.00827,3,12123,0,214,0.18448,0.05889,0.31924,96,1,nan,136,1,3,4298,185610,0,0,0.000,12.951,20.870,0,0.000,14.499,35.746,0,0,1,0,5
PPG,1,3176,128590536,127,175714,195731,194706.828,1024.172,21.938,0,0,0,0,38.46,38.46,2,1,512,nan,4,1,53,1,1,8,8,0,0,0,128623071,0.04150,-0.00586,0.95581,0.95673,-0.00798,0.00238,-0.00061,0.00835,0.95771,0.00235,0.00882,3,12119,0,214,0.18448,0.05889,0.31924,96,1,nan,136,1,3,2599,185610,0,0,0.000,12.951,20.870,0,0.000,14.499,35.746,0,0,1,0,5
PPG,1,3177,128630536,127,175731,195765,194717.406,1047.594,24.688,0,0,0,0,38.46,38.46,2,1,512,nan,4,1,53,1,1,9,9,0,0,0,128664724,0.04053,-0.00366,0.95313,0.95399,-0.00745,0.00238,-0.00114,0.00790,0.95554,0.00119,0.00869,3,12148,0,214,0.18448,0.05889,0.31924,96,1,nan,136,1,3,4298,185610,0,0,0.000,12.951,20.870,0,0.000,14.499,35.746,0,0,1,0,5
PPG,1,3178,128670536,129,175730,195783,194728.062,1054.938,25.406,0,0,0,0,38.46,38.46,2,1,512,nan,4,1,53,1,1,10,10,0,0,0,128703736,0.04199,-0.00439,0.95410,0.95504,-0.00958,0.00292,-0.00087,0.01005,0.95637,0.00238,0.01005,3,12126,0,214,0.18448,0.05889,0.31924,96,1,nan,136,1,3,2606,185610,0,0,0.000,12.951,20.870,0,0.000,14.499,35.746,0,0,1,0,5
PPG,1,3179,128710536,134,175700,195757,194738.359,1018.641,21.516,0,0,0,0,38.46,38.46,2,1,512,nan,4,1,53,1,1,11,11,0,0,0,128745382,0.04053,-0.00586,0.95313,0.95400,-0.00825,0.00318,-0.00034,0.00885,0.96012,0.00509,0.00995,3,12113,0,214,0.18448,0.05889,0.31924,96,1,nan,136,1,3,4301,185610,0,0,0.000,12.951,20.870,0,0.000,14.499,35.746,0,0,1,0,5
PPG,1,3180,128750536,506,175716,195765,194748.625,1016.375,24.266,0,0,0,0,38.46,38.46,2,1,512,nan,4,1,53,1,1,12,12,0,0,0,128784357,0.04272,-0.00269,0.95728,0.95823,-0.00745,0.00265,-0.00034,0.00791,0.96165,0.00764,0.00929,3,12126,0,214,0.16601,0.05656,0.34070,96,1,nan,83,1,3,4300,185610,0,0,0.000,12.951,20.870,0,0.000,14.499,35.746,0,0,1,0,5
PPG,1,3181,128790536,171,175713,195769,194758.828,1010.172,29.922,0,0,0,0,38.46,38.46,2,1,512,nan,4,1,53,1,1,13,13,0,0,0,128823737,0.04321,-0.00610,0.96118,0.96217,-0.00718,0.00212,-0.00061,0.00751,0.96217,0.00259,0.00911,3,12128,0,214,0.16601,0.05656,0.34070,96,1,nan,83,1,3,2612,185610,0,0,0.000,12.951,20.870,0,0.000,14.499,35.746,0,0,1,0,5
PPG,1,3182,128830536,125,175703,195786,194769.094,1016.906,35.844,0,0,0,0,38.46,38.46,2,1,512,nan,4,1,53,1,1,14,14,0,0,0,128865401,0.04199,-0.00684,0.96045,0.96139,-0.00665,0.00265,0.00046,0.00717,0.96139,0.00208,0.00843,3,12157,0,214,0.16601,0.05656,0.34070,96,1,nan,83,1,3,4296,185610,0,0,0.000,12.951,20.870,0,0.000,14.499,35.746,0,0,1,0,5
PPG,1,3183,128870536,124,175668,195726,194778.656,947.344,36.219,0,0,0,0,38.46,38.46,2,1,512,nan,4,1,53,1,1,15,15,0,0,0,128904316,0.04248,-0.00244,0.96313,0.96407,-0.00798,0.00212,-0.00061,0.00828,0.96407,0.00694,0.00985,3,12120,0,214,0.16601,0.05656,0.34070,96,1,nan,83,1,3,4307,185610,0,0,0.000,12.951,20.870,0,0.000,14.499,35.746,0,0,1,0,5
PPG,1,3184,128910536,136,175627,195667,194787.547,879.453,26.078,0,0,0,0,38.46,38.46,2,1,512,nan,4,1,53,1,1,16,16,0,0,0,128943254,0.04150,-0.00464,0.95947,0.96038,-0.00825,0.00238,-0.00061,0.00861,0.96038,0.00523,0.00903,3,12116,0,214,0.16601,0.05656,0.34070,96,1,nan,83,1,3,2604,185610,0,0,0.000,13.416,19.408,0,0.000,14.499,35.746,0,0,1,0,5
PPG,1,3185,128950536,125,175623,195639,194796.062,842.938,9.406,0,0,0,0,38.46,38.46,2,1,512,nan,4,1,53,1,1,17,17,0,0,0,128984814,0.04077,-0.00146,0.95508,0.95595,-0.00745,0.00212,-0.00114,0.00783,0.95684,0.00354,0.00950,3,12116,0,214,0.16601,0.05656,0.34070,96,1,nan,83,1,3,4311,185610,0,0,0.000,13.416,19.408,0,0.000,14.499,35.746,0,0,1,0,5
PPG,1,3186,128990536,150,175605,195654,194804.641,849.359,-4.953,1,0,1,1280,42.86,42.86,2,1,512,nan,4,1,53,1,1,18,18,0,0,0,129023824,0.04468,-0.00806,0.95483,0.95591,-0.00692,0.00158,0.00046,0.00711,0.95591,0.00295,0.00882,3,12122,0,214,0.16601,0.05656,0.34070,96,1,nan,83,1,3,2596,185610,0,0,25.141,13.416,19.408,1,47.078,14.499,35.746,1,1,1,0,5
PPG,1,3187,129030536,123,175605,195657,194813.172,843.828,-21.375,0,0,0,0,42.86,42.86,2,1,512,nan,4,1,53,1,1,19,19,0,0,0,129065490,0.04126,-0.00977,0.95239,0.95334,-0.00905,0.00185,-0.00141,0.00934,0.95967,0.00472,0.00986,3,12163,0,214,0.16601,0.05656,0.34070,96,1,nan,83,1,3,4294,185610,0,0,0.000,12.726,17.432,0,0.000,13.610,32.389,0,0,1,0,5
PPG,1,3188,129070536,127,175602,195656,194821.594,834.406,-38.828,0,0,0,0,42.86,42.86,2,1,512,nan,4,1,53,1,1,20,20,0,0,0,129104408,0.03809,-0.00879,0.95874,0.95954,-0.00772,0.00292,-0.00087,0.00830,0.96286,0.00952,0.00830,3,12113,0,214,0.16601,0.05656,0.34070,96,1,nan,83,1,3,4295,185610,0,0,0.000,12.726,17.432,0,0.000,13.610,32.389,0,0,1,0,5
PPG,1,3189,129110536,125,175605,195663,194830.000,833.000,-55.297,0,0,0,0,42.86,42.86,2,1,512,nan,4,1,53,1,1,21,21,0,0,0,129143319,0.04419,-0.00952,0.96313,0.96419,-0.00852,0.00212,-0.00167,0.00893,0.96419,0.00528,0.00893,3,12123,0,214,0.16601,0.05656,0.34070,96,1,nan,83,1,3,2597,185610,0,0,0.000,12.726,17.432,0,0.000,13.610,32.389,0,0,1,0,5
PPG,1,3190,129150536,126,175600,195671,194838.406,832.594,-60.562,0,0,0,0,42.86,42.86,2,1,512,nan,4,1,53,1,1,22,22,0,0,0,129184870,0.04004,-0.00464,0.96143,0.96227,-0.00772,0.00292,-0.00061,0.00827,0.96401,0.00174,0.00943,3,12123,0,214,0.16601,0.05656,0.34070,96,1,nan,83,1,3,4297,185610,0,0,0.000,12.726,17.432,0,0.000,13.610,32.389,0,0,1,0,5
PPG,1,3191,129190536,127,175601,195647,194846.484,800.516,-58.312,0,0,0,0,42.86,42.86,2,1,512,nan,4,1,53,1,1,23,23,0,0,0,129223853,0.04126,-0.00488,0.95923,0.96013,-0.00772,0.00212,-0.00087,0.00805,0.96034,0.00545,0.00931,3,12128,0,214,0.16601,0.05656,0.34070,96,1,nan,83,1,3,2596,185610,0,0,0.000,12.726,17.432,0,0.000,13.610,32.389,0,0,1,0,5
PPG,1,3192,129230536,127,175586,195632,194854.344,777.656,-52.625,0,0,0,0,42.86,42.86,2,1,512,nan,4,1,53,1,1,24,24,0,0,0,129265475,0.04517,-0.00732,0.96021,0.96129,-0.00772,0.00238,-0.00007,0.00808,0.96129,0.00442,0.00892,3,12146,0,214,0.16601,0.05656,0.34070,96,1,nan,83,1,3,4321,185610,0,0,0.000,12.726,17.432,0,0.000,13.610,32.389,0,0,1,0,5
PPG,1,3193,129270536,125,175578,195634,194862.141,771.859,-50.578,0,0,0,0,42.86,42.86,2,1,512,nan,4,1,53,1,1,25,25,0,0,0,129304451,0.03784,-0.00781,0.95239,0.95318,-0.00798,0.00292,0.00046,0.00851,0.96290,0.00534,0.00851,3,12125,0,214,0.16601,0.05656,0.34070,96,1,nan,83,1,3,4301,185610,0,0,0.000,12.726,17.432,0,0.000,13.610,32.389,0,0,1,0,5
PPG,1,3194,129310536,127,175579,195672,194870.234,801.766,-46.469,0,0,0,0,42.86,42.86,2,1,512,nan,4,1,53,1,1,26,26,0,0,0,129343395,0.04028,-0.01172,0.95728,0.95819,-0.00745,0.00132,-0.00007,0.00757,0.96078,0.00564,0.00869,3,12117,0,214,0.16601,0.05656,0.34070,96,1,nan,83,1,3,2595,185610,0,0,0.000,12.726,17.432,0,0.000,13.610,32.389,0,0,1,0,5
PPG,1,3195,129350536,131,175603,195689,194878.422,810.578,-39.875,0,0,0,0,42.86,42.86,2,1,512,nan,4,1,53,1,1,27,27,0,0,0,129394249,0.03955,-0.00342,0.95581,0.95663,-0.00665,0.00185,-0.00034,0.00691,0.95663,0.00364,0.00726,3,21436,0,215,0.16601,0.05656,0.34070,96,1,nan,83,1,3,14461,185610,0,0,0.000,12.726,17.432,0,0.000,13.610,32.389,0,0,1,0,5
PPG,1,3196,129390536,131,175590,195692,194886.562,805.438,-33.781,0,0,0,0,42.86,42.86,2,1,512,nan,4,1,53,1,1,28,28,0,0,0,129430646,0.04102,-0.01099,0.95020,0.95114,-0.00772,0.00185,0.00046,0.00795,0.96104,0.00741,0.00795,3,12112,0,215,0.16601,0.05656,0.34070,96,1,nan,83,1,3,2593,185610,0,0,0.000,12.726,17.432,0,0.000,13.610,32.389,0,0,1,0,5
PPG,1,3197,129430536,124,175603,195698,194894.672,803.328,-26.562,0,0,0,0,42.86,42.86,2,1,512,nan,4,1,53,1,1,29,29,0,0,0,129467039,0.04004,-0.00562,0.95703,0.95788,-0.00772,0.00185,-0.00114,0.00802,0.95788,0.00331,0.00802,3,12113,0,215,0.16601,0.05656,0.34070,96,1,nan,83,1,3,2587,185610,0,0,0.000,12.726,17.432,0,0.000,13.610,32.389,0,0,1,0,5
PPG,1,3198,129470536,125,175607,195731,194903.031,827.969,-11.969,0,0,0,0,42.86,42.86,2,1,512,nan,4,1,53,1,1,30,30,0,0,0,129503417,0.04297,-0.00879,0.95703,0.95804,-0.00798,0.00158,-0.00087,0.00819,0.95804,0.00672,0.00968,3,12118,0,215,0.16601,0.05656,0.34070,96,1,nan,83,1,3,2595,185610,0,0,0.000,12.726,17.432,0,0.000,13.610,32.389,0,0,1,0,5
PPG,1,3199,129510536,124,175600,195726,194911.266,814.734,3.016,0,0,0,0,42.86,42.86,2,1,512,nan,4,1,53,1,1,31,31,0,0,0,129544927,0.04053,-0.00293,0.95752,0.95838,-0.00852,0.00292,-0.00087,0.00904,0.95963,0.00208,0.00904,3,12119,0,215,0.16601,0.05656,0.34070,96,1,nan,83,1,3,4298,185610,0,0,0.000,12.726,17.432,0,0.000,13.610,32.389,0,0,1,0,5
PPG,1,3200,129550536,126,175593,195728,194919.438,808.562,18.297,0,0,0,0,42.86,42.86,2,1,512,nan,4,1,53,1,1,0,0,0,0,0,129583930,0.04614,-0.00659,0.95972,0.96085,-0.00772,0.00238,0.00046,0.00809,0.96105,0.00781,0.00863,3,12186,0,215,0.16601,0.05656,0.34070,96,1,nan,83,1,3,2659,185610,0,0,0.000,12.726,17.432,0,0.000,13.610,32.389,0,0,1,0,5
PPG,1,3201,129590536,127,175576,195692,194927.156,764.844,25.000,0,0,0,0,42.86,42.86,2,1,512,nan,4,1,53,1,1,1,1,0,0,0,129625822,0.03955,-0.00806,0.95361,0.95447,-0.00825,0.00158,-0.00114,0.00848,0.96366,0.00920,0.00938,3,12112,0,215,0.16601,0.05656,0.34070,96,1,nan,83,1,3,4362,185610,0,0,0.000,12.726,17.432,0,0.000,13.610,32.389,0,0,1,0,5
PPG,1,3202,129630536,126,175557,195637,194934.250,702.750,25.031,0,0,0,0,42.86,42.86,2,1,512,nan,4,1,53,1,1,2,2,0,0,0,129664783,0.04346,-0.00854,0.95605,0.95708,-0.00985,0.00265,0.00019,0.01020,0.96092,0.00645,0.01020,3,12117,0,215,0.16601,0.05656,0.34070,96,1,nan,83,1,3,4298,185610,0,0,0.000,12.726,17.432,0,0.000,13.610,32.389,0,0,1,0,5
PPG,1,3203,129670536,164,175547,195623,194941.141,681.859,20.312,0,0,0,0,42.86,42.86,2,1,512,nan,4,1,53,1,1,3,3,0,0,0,129703898,0.04077,-0.00391,0.95435,0.95522,-0.00878,0.00318,-0.00061,0.00936,0.96344,0.00890,0.00982,3,12113,0,215,0.16601,0.05656,0.34070,96,1,nan,83,1,3,2684,185610,0,0,0.000,12.726,17.432,0,0.000,13.610,32.389,0,0,1,0,5
PPG,1,3204,129710536,128,175527,195605,194947.781,657.219,10.125,0,0,0,0,42.86,42.86,2,1,512,nan,4,1,53,1,1,4,4,0,0,0,129745683,0.04102,-0.01172,0.95850,0.95944,-0.00905,0.00265,-0.00007,0.00943,0.96431,0.00909,0.00943,3,12122,0,215,0.16601,0.05656,0.34070,96,1,nan,83,1,3,4361,185610,0,0,0.000,12.726,17.432,0,0.000,13.610,32.389,0,0,1,0,5
PPG,1,3205,129750536,509,175500,195564,194953.938,610.062,-9.969,0,0,0,0,42.86,42.86,2,1,512,nan,4,1,53,1,1,5,5,0,0,0,129784849,0.04150,-0.00488,0.96167,0.96258,-0.00825,0.00292,-0.00114,0.00882,0.96258,0.00813,0.00882,3,12227,0,215,0.11475,0.07763,0.67653,-999,0,93.087,250,1,3,4374,185610,0,0,0.000,12.726,17.432,0,0.000,13.610,32.389,0,0,1,0,5
PPG,1,3206,129790536,180,175538,195638,194960.781,677.219,-21.750,0,0,0,0,42.86,42.86,2,1,512,nan,4,1,53,1,1,6,6,0,0,0,129824735,0.04541,-0.00830,0.95630,0.95741,-0.00825,0.00105,-0.00114,0.00839,0.95992,0.00265,0.00947,3,12257,0,215,0.11475,0.07763,0.67653,-999,0,93.087,250,1,3,4336,185610,0,0,0.000,12.726,17.432,0,0.000,13.610,32.389,0,0,1,0,5
PPG,1,3207,129830536,124,175530,195660,194967.766,692.234,-31.625,0,0,0,0,42.86,42.86,2,1,512,nan,4,1,53,1,1,7,7,0,0,0,129864135,0.04175,-0.00903,0.95532,0.95628,-0.00852,0.00185,-0.00034,0.00872,0.96115,0.00374,0.00872,3,12248,0,215,0.11475,0.07763,0.67653,-999,0,93.087,250,1,3,2636,185610,0,0,0.000,12.726,17.432,0,0.000,13.610,32.389,0,0,1,0,5
PPG,1,3208,129870536,134,175534,195676,194974.844,701.156,-34.906,0,0,0,0,42.86,42.86,2,1,512,nan,4,1,53,1,1,8,8,0,0,0,129906099,0.04492,-0.00610,0.95239,0.95347,-0.00798,0.00265,-0.00087,0.00846,0.96332,0.00805,0.00894,3,12275,0,215,0.11475,0.07763,0.67653,-999,0,93.087,250,1,3,4343,185610,0,0,0.000,12.726,17.432,0,0.000,13.610,32.389,0,0,1,0,5
PPG,1,3209,129910536,127,175555,195726,194982.359,743.641,-25.328,0,0,0,0,42.86,42.86,2,1,512,nan,4,1,53,1,1,9,9,0,0,0,129945444,0.04272,-0.00854,0.95679,0.95778,-0.00798,0.00292,-0.00061,0.00852,0.95943,0.00799,0.00875,3,12250,0,215,0.11475,0.07763,0.67653,-999,0,93.087,250,1,3,4339,185610,0,0,0.000,12.726,17.432,0,0.000,13.610,32.389,0,0,1,0,5
PPG,1,3210,129950536,149,175576,195755,194990.078,764.922,-10.672,1,0,1,960,42.86,42.86,2,1,16,nan,4,1,53,1,1,10,10,0,0,0,129984760,0.04102,-0.00635,0.95361,0.95452,-0.00825,0.00265,-0.00061,0.00869,0.95743,0.00503,0.00886,3,12269,0,215,0.11475,0.07763,0.67653,-999,0,93.087,250,1,3,4363,185610,0,0,60.031,12.726,17.432,1,85.594,13.610,32.389,1,1,1,0,6
PPG,1,3211,129990536,123,175574,195788,194998.062,789.938,8.422,0,0,0,0,42.86,42.86,2,1,16,nan,4,1,53,1,1,11,11,0,0,0,130024194,0.03979,-0.00513,0.95483,0.95568,-0.00905,0.00212,-0.00087,0.00933,0.96040,0.00955,0.00933,3,12277,0,215,0.11475,0.07763,0.67653,-999,0,93.087,250,1,3,2645,185610,0,0,0.000,12.340,16.327,0,0.000,13.073,30.360,0,0,1,0,6
PPG,1,3212,130030536,131,175581,195808,195006.156,801.844,34.484,0,0,0,0,42.86,42.86,2,1,16,nan,4,1,53,1,1,12,12,0,0,0,130066200,0.04175,-0.00171,0.95947,0.96038,-0.00825,0.00105,-0.00007,0.00832,0.96038,0.01211,0.00880,3,12254,0,215,0.11475,0.07763,0.67653,-999,0,93.087,250,1,3,4334,185610,0,0,0.000,12.340,16.327,0,0.000,13.073,30.360,0,0,1,0,6
PPG,1,3213,130070536,132,175587,195865,195014.750,850.250,55.344,0,0,0,0,42.86,42.86,2,1,16,nan,4,1,53,1,1,13,13,0,0,0,130105622,0.04077,-0.00391,0.95630,0.95718,-0.00825,0.00212,-0.00087,0.00856,0.96428,0.01301,0.00923,3,12262,0,215,0.11475,0.07763,0.67653,-999,0,93.087,250,1,3,4335,185610,0,0,0.000,12.340,16.327,0,0.000,13.073,30.360,0,0,1,0,6
PPG,1,3214,130110536,130,175605,195874,195023.344,850.656,75.828,0,0,0,0,42.86,42.86,2,1,16,nan,4,1,53,1,1,14,14,0,0,0,130144885,0.04297,-0.00806,0.96216,0.96315,-0.00798,0.00292,-0.00141,0.00861,0.96315,0.00522,0.00861,3,12229,0,215,0.11475,0.07763,0.67653,-999,0,93.087,250,1,3,4332,185610,0,0,0.000,12.340,16.327,0,0.000,13.073,30.360,0,0,1,0,6
PPG,1,3215,130150536,127,175585,195878,195031.891,846.109,95.219,0,0,0,0,42.86,42.86,2,1,16,nan,4,1,53,1,1,15,15,0,0,0,130184151,0.04028,-0.00610,0.95679,0.95765,-0.00745,0.00238,-0.00167,0.00800,0.96268,0.00502,0.00870,3,12244,0,215,0.11475,0.07763,0.67653,-999,0,93.087,250,1,3,2641,185610,0,0,0.000,12.340,16.327,0,0.000,13.073,30.360,0,0,1,0,6
PPG,1,3216,130190536,138,175597,195925,195040.828,884.172,112.016,0,1,0,0,42.86,42.86,2,1,16,nan,4,1,53,1,1,16,16,0,0,0,130226064,0.04199,-0.00879,0.95728,0.95824,-0.00852,0.00265,-0.00141,0.00903,0.95988,0.00222,0.00903,3,12245,0,215,0.11475,0.07763,0.67653,-999,0,93.087,250,1,3,4342,185610,0,0,0.000,12.340,16.327,0,0.000,13.073,30.360,0,0,1,0,6
PPG,1,3217,130230536,127,175604,195913,195049.547,863.453,123.828,0,0,0,0,42.86,42.86,2,1,16,nan,4,1,53,1,1,17,17,0,0,0,130265305,0.03882,-0.00610,0.95532,0.95613,-0.00825,0.00212,-0.00061,0.00854,0.95985,0.00372,0.00882,3,12205,0,215,0.11475,0.07763,0.67653,-999,0,93.087,250,1,3,4335,185610,0,0,0.000,12.340,16.327,0,0.000,13.073,30.360,0,0,1,0,6
PPG,1,3218,130270536,128,175603,195940,195058.453,881.547,135.094,0,0,0,0,42.86,42.86,2,1,16,nan,4,1,53,1,1,18,18,0,0,0,130304580,0.03955,-0.00830,0.95654,0.95740,-0.00692,0.00265,-0.00034,0.00742,0.95740,0.00315,0.00839,3,12250,0,215,0.11475,0.07763,0.67653,-999,0,93.087,250,1,3,4330,185610,0,0,0.000,12.340,16.327,0,0.000,13.073,30.360,0,0,1,0,6
PPG,1,3219,130310536,127,175639,195998,195067.844,930.156,148.625,0,0,0,0,42.86,42.86,2,1,16,nan,4,1,53,1,1,19,19,0,0,0,130343856,0.04102,-0.00635,0.96045,0.96135,-0.00718,0.00318,-0.00114,0.00794,0.96135,0.00214,0.00794,3,12239,0,215,0.11475,0.07763,0.67653,-999,0,93.087,250,1,3,2619,185610,0,0,0.000,12.340,16.327,0,0.000,13.073,30.360,0,0,1,0,6
PPG,1,3220,130350536,136,175634,195987,195077.031,909.969,153.125,0,0,0,0,42.86,42.86,2,1,16,nan,4,1,53,1,1,20,20,0,0,0,130395526,0.04150,-0.00488,0.95313,0.95404,-0.00878,0.00212,-0.00141,0.00914,0.96400,0.00856,0.00914,3,22006,0,216,0.11475,0.07763,0.67653,-999,0,93.087,250,1,3,14964,185610,0,0,0.000,12.340,16.327,0,0.000,13.073,30.360,0,0,1,0,6
PPG,1,3221,130390536,221,175630,195963,195085.891,877.109,152.266,0,0,0,0,42.86,42.86,2,1,16,nan,4,1,53,1,1,21,21,0,0,0,130420015,0.04321,-0.00488,0.95557,0.95656,-0.00798,0.00212,-0.00061,0.00828,0.96032,0.00628,0.00843,2,12189,0,216,0.11475,0.07763,0.67653,-999,0,93.087,250,1,3,2595,185610,0,0,0.000,12.340,16.327,0,0.000,13.073,30.360,0,0,1,0,6
PPG,1,3222,130430536,129,175624,195963,195094.656,868.344,148.125,0,0,0,0,42.86,42.86,2,1,16,nan,4,1,53,1,1,22,22,0,0,0,130464431,0.03882,-0.00781,0.96045,0.96127,-0.00772,0.00238,-0.00167,0.00825,0.96127,0.00439,0.00835,3,12116,0,217,0.11475,0.07763,0.67653,-999,0,93.087,250,1,3,2595,185610,0,0,0.000,12.340,16.327,0,0.000,13.073,30.360,0,0,1,0,6
PPG,1,3223,130470536,140,175621,195989,195103.594,885.406,138.969,0,0,0,0,42.86,42.86,2,1,16,nan,4,1,53,1,1,23,23,0,0,0,130506047,0.03857,-0.00635,0.95605,0.95685,-0.00825,0.00212,-0.00087,0.00856,0.95800,0.00327,0.00877,3,12171,0,217,0.11475,0.07763,0.67653,-999,0,93.087,250,1,3,4303,185610,0,0,0.000,12.340,16.327,0,0.000,13.073,30.360,0,0,1,0,6
PPG,1,3224,130510536,132,175640,196023,195112.781,910.219,133.766,0,0,0,0,42.86,42.86,2,1,16,nan,4,1,53,1,1,24,24,0,0,0,130545002,0.03931,-0.01001,0.95605,0.95691,-0.00905,0.00185,-0.00007,0.00924,0.95691,0.00544,0.00924,3,12113,0,217,0.11475,0.07763,0.67653,-999,0,93.087,250,1,3,4297,185610,0,0,0.000,12.340,16.327,0,0.000,13.073,30.360,0,0,1,0,6
PPG,1,3225,130550536,179,175665,196076,195122.406,953.594,127.609,0,0,0,0,42.86,42.86,2,1,16,nan,4,1,53,1,1,25,25,0,0,0,130583996,0.04102,-0.00830,0.95557,0.95648,-0.00798,0.00265,-0.00061,0.00843,0.96198,0.00506,0.00912,3,12132,0,217,0.11475,0.07763,0.67653,-999,0,93.087,250,1,3,2602,185610,0,0,0.000,12.340,16.327,0,0.000,13.073,30.360,0,0,1,0,6
PPG,1,3226,130590536,138,175679,196131,195132.484,998.516,121.953,0,0,0,0,42.86,42.86,2,1,16,nan,4,1,53,1,1,26,26,0,0,0,130625739,0.04175,-0.00415,0.95483,0.95576,-0.00745,0.00185,-0.00034,0.00768,0.96067,0.00418,0.00800,3,12116,0,217,0.11475,0.07763,0.67653,-999,0,93.087,250,1,3,4304,185610,0,0,0.000,11.804,17.761,0,0.000,13.073,30.360,0,0,1,0,6
PPG,1,3227,130630536,128,175687,196145,195142.609,1002.391,120.266,0,0,0,0,42.86,42.86,2,1,16,nan,4,1,53,1,1,27,27,0,0,0,130664717,0.03979,-0.00366,0.95532,0.95616,-0.00718,0.00238,-0.00034,0.00758,0.95829,0.00253,0.00860,3,12124,0,217,0.11475,0.07763,0.67653,-999,0,93.087,250,1,3,4307,185610,0,0,0.000,11.804,17.761,0,0.000,13.073,30.360,0,0,1,0,6
PPG,1,3228,130670536,129,175674,196147,195152.656,994.344,123.016,1,0,0,0,42.86,42.86,2,1,16,nan,4,1,53,1,1,28,28,0,0,0,130703704,0.03882,-0.00049,0.96094,0.96172,-0.00772,0.00185,-0.00034,0.00794,0.96172,0.00724,0.00822,3,12158,0,217,0.11475,0.07763,0.67653,-999,0,93.087,250,1,3,2629,185610,0,0,0.000,11.804,17.761,0,188.031,13.073,30.360,1,0,1,0,6
PPG,1,3229,130710536,128,175684,196170,195162.828,1007.172,130.375,0,0,0,0,42.86,42.86,2,1,16,nan,4,1,53,1,1,29,29,0,0,0,130745324,0.03955,-0.00708,0.95630,0.95714,-0.00798,0.00318,-0.00061,0.00862,0.96017,0.00303,0.00862,3,12134,0,217,0.11475,0.07763,0.67653,-999,0,93.087,250,1,3,4324,185610,0,0,0.000,11.804,17.761,0,0.000,13.073,30.360,0,0,1,0,6
PPG,1,3230,130750536,541,175681,196181,195173.016,1007.984,136.516,0,0,1,760,46.88,46.88,2,1,16,nan,4,1,53,1,1,30,30,0,0,0,130784305,0.04199,-0.00806,0.96069,0.96164,-0.00931,0.00425,-0.00007,0.01024,0.96330,0.00616,0.01024,3,12128,0,217,0.08904,0.06642,0.74598,99,1,91.350,125,1,3,2596,185610,0,0,79.641,11.804,17.761,1,0.000,13.073,30.360,0,1,1,0,7
PPG,1,3231,130790536,178,175685,196231,195183.594,1047.406,144.078,0,0,0,0,46.88,46.88,2,1,16,nan,4,1,53,1,1,31,31,0,0,0,130826476,0.04126,-0.00806,0.95630,0.95722,-0.00905,0.00318,-0.00061,0.00961,0.95722,0.00635,0.00961,3,12121,0,217,0.08904,0.06642,0.74598,99,1,91.350,125,1,3,4304,185610,0,0,0.000,11.589,17.091,0,0.000,13.243,31.003,0,0,1,0,7
PPG,1,3232,130830536,139,175686,196238,195194.141,1043.859,145.734,0,0,0,0,46.88,46.88,2,1,16,nan,4,1,53,1,1,0,0,0,0,0,130865530,0.04150,-0.00830,0.95947,0.96041,-0.00958,0.00185,-0.00034,0.00976,0.96041,0.00433,0.00978,3,12105,0,217,0.08904,0.06642,0.74598,99,1,91.350,125,1,3,4300,185610,0,0,0.000,11.578,17.120,0,0.000,13.243,31.003,0,0,1,0,7
PPG,1,3233,130870536,138,175702,196216,195204.359,1011.641,140.312,0,0,0,0,46.88,46.88,2,1,16,nan,4,1,53,1,1,1,1,0,0,0,130904555,0.04053,-0.00757,0.95605,0.95694,-0.00958,0.00292,-0.00141,0.01011,0.95694,0.00467,0.01103,3,12130,0,217,0.08904,0.06642,0.74598,99,1,91.350,125,1,3,2649,185610,0,0,0.000,11.578,17.120,0,0.000,13.243,31.003,0,0,1,0,7
PPG,1,3234,130910536,130,175723,196213,195214.453,998.547,133.078,0,0,0,0,46.88,46.88,2,1,16,nan,4,1,53,1,1,2,2,0,0,0,130946534,0.04419,-0.00854,0.95874,0.95980,-0.00745,-0.00001,0.00073,0.00748,0.95980,0.00197,0.00771,3,12109,0,217,0.08904,0.06642,0.74598,99,1,91.350,125,1,3,4297,185610,0,0,0.000,11.578,17.120,0,0.000,13.243,31.003,0,0,1,0,7
PPG,1,3235,130950536,130,175738,196250,195224.812,1025.188,129.188,0,0,0,0,46.88,46.88,2,1,16,nan,4,1,53,1,1,3,3,0,0,0,130985606,0.04004,-0.00708,0.95654,0.95741,-0.00825,0.00132,-0.00007,0.00835,0.96019,0.00386,0.00869,3,12121,0,217,0.08904,0.06642,0.74598,99,1,91.350,125,1,3,4300,185610,0,0,0.000,11.578,17.120,0,0.000,13.243,31.003,0,0,1,0,7
PPG,1,3236,130990536,137,175726,196212,195234.688,977.312,120.844,0,0,0,0,46.88,46.88,2,1,16,nan,4,1,53,1,1,4,4,0,0,0,131024712,0.03979,-0.00879,0.95728,0.95814,-0.00825,0.00185,-0.00087,0.00850,0.95841,0.00100,0.00850,3,12145,0,217,0.08904,0.06642,0.74598,99,1,91.350,125,1,3,2601,185610,0,0,0.000,11.112,18.541,0,0.000,13.243,31.003,0,0,1,0,7
PPG,1,3237,131030536,129,175670,196108,195243.422,864.578,100.672,0,0,0,0,46.88,46.88,2,1,16,nan,4,1,53,1,1,5,5,0,0,0,131066388,0.04199,-0.01074,0.96240,0.96338,-0.00798,0.00105,-0.00087,0.00810,0.96338,0.00481,0.00942,3,12121,0,217,0.08904,0.06642,0.74598,99,1,91.350,125,1,3,4301,185610,0,0,0.000,11.112,18.541,0,0.000,13.243,31.003,0,0,1,0,7
PPG,1,3238,131070536,129,175620,196036,195251.344,784.656,68.016,0,0,0,0,46.88,46.88,2,1,16,nan,4,1,53,1,1,6,6,0,0,0,131105392,0.04248,-0.00513,0.95850,0.95945,-0.00772,0.00238,-0.00087,0.00812,0.95945,0.00689,0.00856,3,12122,0,217,0.08904,0.06642,0.74598,99,1,91.350,125,1,3,4323,185610,0,0,0.000,11.112,18.541,0,0.000,13.243,31.003,0,0,1,0,7
PPG,1,3239,131110536,128,175587,196031,195259.141,771.859,36.781,0,0,0,0,46.88,46.88,2,1,16,nan,4,1,53,1,1,7,7,0,0,0,131144394,0.04224,-0.00903,0.96118,0.96215,-0.00798,0.00345,0.00019,0.00870,0.96215,0.00259,0.00885,3,12117,0,217,0.08904,0.06642,0.74598,99,1,91.350,125,1,3,2596,185610,0,0,0.000,11.112,18.541,0,0.000,13.243,31.003,0,0,1,0,7
PPG,1,3240,131150536,129,175566,195986,195266.406,719.594,3.969,1,0,0,0,46.88,46.88,2,1,16,nan,4,1,53,1,1,8,8,0,0,0,131185973,0.04224,-0.00806,0.95728,0.95824,-0.00772,0.00292,-0.00007,0.00825,0.95824,0.00724,0.00825,3,12118,0,217,0.08904,0.06642,0.74598,99,1,91.350,125,1,3,4300,185610,0,0,0.000,11.112,18.541,0,25.469,13.243,31.003,1,0,1,0,7
PPG,1,3241,131190536,129,175521,195893,195272.672,620.328,-38.234,0,0,0,0,46.88,46.88,2,1,16,nan,4,1,53,1,1,9,9,0,0,0,131225006,0.03979,-0.00562,0.95776,0.95861,-0.00825,0.00265,-0.00034,0.00867,0.95998,0.00358,0.00889,3,12126,0,217,0.08904,0.06642,0.74598,99,1,91.350,125,1,3,4294,185610,0,0,0.000,11.112,18.541,0,0.000,13.243,31.003,0,0,1,0,7
PPG,1,3242,131230536,129,175487,195893,195278.875,614.125,-85.734,0,0,0,0,46.88,46.88,2,1,16,nan,4,1,53,1,1,10,10,0,0,0,131263994,0.04272,-0.00781,0.95679,0.95777,-0.00852,0.00185,-0.00221,0.00899,0.96285,0.00554,0.00899,3,12114,0,217,0.08904,0.06642,0.74598,99,1,91.350,125,1,3,2600,185610,0,0,0.000,11.112,18.541,0,0.000,13.243,31.003,0,0,1,0,7
PPG,1,3243,131270536,129,175482,195908,195285.172,622.828,-125.125,0,0,0,0,46.88,46.88,2,1,16,nan,4,1,53,1,1,11,11,0,0,0,131305606,0.03979,-0.00586,0.95361,0.95446,-0.00852,0.00292,-0.00194,0.00921,0.95460,0.00317,0.00981,3,12121,0,217,0.08904,0.06642,0.74598,99,1,91.350,125,1,3,4300,185610,0,0,0.000,11.112,18.541,0,0.000,13.243,31.003,0,0,1,0,7
PPG,1,3244,131310536,132,175473,195917,195291.484,625.516,-147.094,0,0,0,0,46.88,46.88,2,1,16,nan,4,1,53,1,1,12,12,0,0,0,131344610,0.03979,-0.00635,0.95459,0.95544,-0.00905,0.00265,-0.00034,0.00943,0.95823,0.00465,0.00943,3,12117,0,217,0.08904,0.06642,0.74598,99,1,91.350,125,1,3,2596,185610,0,0,0.000,11.112,18.541,0,0.000,13.243,31.003,0,0,1,0,6
PPG,1,3245,131350536,134,175511,195969,195298.266,670.734,-151.328,0,0,0,0,46.88,46.88,2,1,16,nan,4,1,53,1,1,13,13,0,0,0,131395528,0.04126,-0.00708,0.95752,0.95843,-0.00798,0.00238,-0.00167,0.00850,0.95843,0.00198,0.00850,3,21418,0,218,0.08904,0.06642,0.74598,99,1,91.350,125,1,3,14448,185610,0,0,0.000,11.112,18.541,0,0.000,13.243,31.003,0,0,1,0,6
PPG,1,3246,131390536,134,175507,195999,195305.266,693.734,-149.297,0,0,0,0,46.88,46.88,2,1,16,nan,4,1,53,1,1,14,14,0,0,0,131419941,0.04150,-0.00732,0.95825,0.95918,-0.00878,0.00238,-0.00034,0.00911,0.95918,0.00641,0.00911,2,12203,0,218,0.08904,0.06642,0.74598,99,1,91.350,125,1,3,2588,185610,0,0,0.000,11.112,18.541,0,0.000,13.243,31.003,0,0,1,0,6
PPG,1,3247,131430536,129,175486,195987,195312.078,674.922,-141.250,0,0,0,0,46.88,46.88,2,1,16,nan,4,1,53,1,1,15,15,0,0,0,131464134,0.04272,-0.00342,0.95483,0.95580,-0.00852,-0.00028,-0.00034,0.00853,0.95621,0.00567,0.00941,3,12113,0,218,0.08904,0.06642,0.74598,99,1,91.350,125,1,3,2599,185610,0,0,0.000,11.112,18.541,0,0.000,13.243,31.003,0,0,1,0,6
PPG,1,3248,131470536,130,175478,195949,195318.453,630.547,-123.344,0,0,0,0,46.88,46.88,2,1,16,nan,4,1,53,1,1,16,16,0,0,0,131505739,0.03857,-0.00610,0.96167,0.96246,-0.00745,-0.00348,0.00019,0.00822,0.96246,0.00540,0.01096,3,12116,0,218,0.08904,0.06642,0.74598,99,1,91.350,125,1,3,4297,185610,0,0,0.000,11.112,18.541,0,0.000,13.243,31.003,0,0,1,0,6
PPG,1,3249,131510536,130,175476,195939,195324.656,614.344,-105.219,0,0,0,0,46.88,46.88,2,1,16,nan,4,1,53,1,1,17,17,0,0,0,131544760,0.04321,-0.01050,0.96460,0.96562,-0.00958,0.00105,0.00073,0.00967,0.96562,0.00552,0.00967,3,12114,0,218,0.08904,0.06642,0.74598,99,1,91.350,125,1,3,2604,185610,0,0,0.000,11.112,18.541,0,0.000,13.243,31.003,0,0,1,0,6
PPG,1,3250,131550536,130,175449,195940,195330.812,609.188,-88.609,0,0,0,0,46.88,46.88,2,1,16,nan,4,1,53,1,1,18,18,0,0,0,131586371,0.04126,-0.00464,0.94727,0.94818,-0.00852,0.00398,-0.00007,0.00940,0.95609,0.00954,0.00940,3,12113,0,218,0.08904,0.06642,0.74598,99,1,91.350,125,1,3,4301,185610,0,0,0.000,11.112,18.541,0,0.000,13.243,31.003,0,0,1,0,6
PPG,1,3251,131590536,128,175438,195924,195336.750,587.250,-72.266,0,0,0,0,46.88,46.88,2,1,16,nan,4,1,53,1,1,19,19,0,0,0,131625464,0.04248,-0.00781,0.95337,0.95435,-0.00905,0.00318,-0.00167,0.00974,0.96274,0.01456,0.00974,3,12166,0,218,0.08904,0.06642,0.74598,99,1,91.350,125,1,3,4300,185610,0,0,0.000,11.112,18.541,0,0.000,13.243,31.003,0,0,1,0,6
PPG,1,3252,131630536,131,175435,195947,195342.859,604.141,-60.844,0,0,0,0,46.88,46.88,2,1,16,nan,4,1,53,1,1,20,20,0,0,0,131664474,0.03857,-0.00806,0.96045,0.96126,-0.00825,0.00265,-0.00087,0.00871,0.96126,0.00412,0.00911,3,12112,0,218,0.08904,0.06642,0.74598,99,1,91.350,125,1,3,2599,185610,0,0,0.000,11.112,18.541,0,0.000,13.243,31.003,0,0,1,0,6
PPG,1,3253,131670536,133,175437,195952,195348.953,603.047,-54.375,0,0,0,0,46.88,46.88,2,1,16,nan,4,1,53,1,1,21,21,0,0,0,131706072,0.03979,-0.00537,0.95776,0.95861,-0.00852,0.00265,-0.00034,0.00892,0.96038,0.00573,0.00892,3,12112,0,218,0.08904,0.06642,0.74598,99,1,91.350,125,1,3,4298,185610,0,0,0.000,11.112,18.541,0,0.000,13.243,31.003,0,0,1,0,6
PPG,1,3254,131710536,127,175431,195961,195355.078,605.922,-45.469,0,0,0,0,46.88,46.88,2,1,16,nan,4,1,53,1,1,22,22,0,0,0,131745254,0.04199,-0.00854,0.95508,0.95604,-0.00852,0.00318,-0.00087,0.00913,0.96288,0.00784,0.00913,3,12258,0,218,0.08904,0.06642,0.74598,99,1,91.350,125,1,3,4299,185610,0,0,0.000,11.112,18.541,0,0.000,13.243,31.003,0,0,1,0,6
PPG,1,3255,131750536,516,175415,195951,195361.031,589.969,-30.234,0,0,0,0,46.88,46.88,2,1,16,nan,4,1,53,1,1,23,23,0,0,0,131784395,0.03979,-0.00854,0.95435,0.95521,-0.00772,0.00398,-0.00087,0.00873,0.96287,0.00683,0.00910,3,12244,0,218,0.09164,0.05871,0.64061,99,1,93.985,166,1,3,2598,185610,0,0,0.000,11.112,18.541,0,0.000,13.243,31.003,0,0,1,0,6
PPG,1,3256,131790536,188,175411,195950,195366.922,583.078,-15.578,0,0,0,0,46.88,46.88,2,1,16,nan,4,1,53,2,2,25,25,0,0,0,131888801,0.04346,-0.00928,0.95630,0.95733,-0.00878,0.00292,-0.00061,0.00927,0.96271,0.00750,0.00927,4,62010,0,223,0.09164,0.05871,0.64061,99,1,93.985,166,1,3,61928,185610,0,0,0.000,11.112,18.541,0,0.000,13.243,31.003,0,0,1,0,6
PPG,1,3257,131830536,38,175409,195981,195373.062,607.938,-3.375,0,0,0,0,46.88,46.88,2,1,16,nan,4,1,53,2,2,25,25,0,0,0,131888801,0.04346,-0.00928,0.95630,0.95733,-0.00878,0.00292,-0.00061,0.00927,0.00000,0.00000,0.00000,0,62010,0,223,0.09164,0.05871,0.64061,99,1,93.985,166,1,3,61928,185610,0,0,0.000,11.112,18.541,0,0.000,13.243,31.003,0,0,1,0,6
PPG,1,3258,131870536,128,175420,196006,195379.391,626.609,9.844,0,0,0,0,46.88,46.88,2,1,16,nan,4,1,53,1,1,26,26,0,0,0,131902518,0.04321,-0.00635,0.96729,0.96827,-0.00798,0.00265,-0.00141,0.00853,0.96827,0.01094,0.00853,1,13717,0,223,0.09164,0.05871,0.64061,99,1,93.985,166,1,3,10106,185610,0,0,0.000,11.112,18.541,0,0.000,13.243,31.003,0,0,1,0,6
PPG,1,3259,131910536,129,175424,196010,195385.703,624.297,19.906,0,0,0,0,46.88,46.88,2,1,16,nan,4,1,53,1,1,27,27,0,0,0,131947554,0.04614,-0.00391,0.95850,0.95961,-0.00798,0.00185,-0.00114,0.00827,0.96187,0.00640,0.00850,3,12252,0,224,0.09164,0.05871,0.64061,99,1,93.985,166,1,3,4344,185610,0,0,0.000,11.112,18.541,0,0.000,13.243,31.003,0,0,1,0,6
PPG,1,3260,131950536,133,175407,195953,195391.375,561.625,21.688,0,0,0,0,46.88,46.88,2,1,16,nan,4,1,53,1,1,28,28,0,0,0,131986944,0.04321,-0.00952,0.95825,0.95927,-0.00772,0.00265,-0.00061,0.00818,0.96163,0.00202,0.00827,3,12227,0,224,0.09164,0.05871,0.64061,99,1,93.985,166,1,3,4335,185610,0,0,0.000,11.112,18.541,0,0.000,13.243,31.003,0,0,1,0,6
PPG,1,3261,131990536,142,175360,195893,195396.391,496.609,11.969,0,0,0,0,46.88,46.88,2,1,16,nan,4,1,53,1,1,29,29,0,0,0,132026324,0.04321,-0.00952,0.95532,0.95635,-0.00745,0.00265,-0.00087,0.00796,0.95963,0.00296,0.00866,3,12257,0,224,0.09164,0.05871,0.64061,99,1,93.985,166,1,3,4360,185610,0,0,0.000,11.112,18.541,0,0.000,13.243,31.003,0,0,1,0,6
PPG,1,3262,132030536,126,175359,195894,195401.359,492.641,3.781,0,0,0,0,46.88,46.88,2,1,16,nan,4,1,53,1,1,30,30,0,0,0,132065681,0.04419,-0.00903,0.95630,0.95736,-0.00905,0.00292,-0.00007,0.00951,0.96807,0.01893,0.00979,3,12210,0,224,0.09164,0.05871,0.64061,99,1,93.985,166,1,3,4342,185610,0,0,0.000,11.112,18.541,0,0.000,13.243,31.003,0,0,1,0,6
PPG,1,3263,132070536,136,175344,195901,195406.359,494.641,-2.875,0,0,0,0,46.88,46.88,2,1,16,nan,4,1,53,1,1,31,31,0,0,0,132105070,0.04077,-0.00977,0.95605,0.95697,-0.00798,0.00185,-0.00061,0.00822,0.95697,0.00692,0.00874,3,12243,0,224,0.09164,0.05871,0.64061,99,1,93.985,166,1,3,2628,185610,0,0,0.000,11.112,18.541,0,0.000,13.243,31.003,0,0,1,0,6
PPG,1,3264,132110536,135,175365,195930,195411.594,518.406,-10.797,0,0,0,0,46.88,46.88,2,1,16,nan,4,1,53,1,1,0,0,0,0,0,132147099,0.04468,-0.00757,0.95703,0.95810,-0.00878,0.00292,-0.00087,0.00929,0.95916,0.00464,0.00929,3,12240,0,224,0.09164,0.05871,0.64061,99,1,93.985,166,1,3,4314,185610,0,0,0.000,11.112,18.541,0,0.000,13.243,31.003,0,0,1,0,6
PPG,1,3265,132150536,130,175378,195989,195417.375,571.625,-14.219,0,0,0,0,46.88,46.88,2,1,16,nan,4,1,53,1,1,1,1,0,0,0,132186408,0.04224,-0.01001,0.95801,0.95899,-0.00798,0.00212,-0.00007,0.00826,0.95899,0.00518,0.00898,3,12227,0,224,0.09164,0.05871,0.64061,99,1,93.985,166,1,3,4327,185610,0,0,0.000,11.112,18.541,0,0.000,13.243,31.003,0,0,1,0,6
PPG,1,3266,132190536,154,175408,196045,195423.656,621.344,-11.516,0,0,0,0,46.88,46.88,2,1,16,nan,4,1,53,1,1,2,2,0,0,0,132225708,0.04419,-0.00708,0.95532,0.95637,-0.00825,0.00265,-0.00007,0.00866,0.95731,0.00559,0.00866,3,12223,0,224,0.09164,0.05871,0.64061,99,1,93.985,166,1,3,4325,185610,0,0,0.000,11.112,18.541,0,0.000,13.243,31.003,0,0,1,0,6
PPG,1,3267,132230536,129,175449,196137,195430.797,706.203,7.266,0,0,0,0,46.88,46.88,2,1,16,nan,4,1,53,1,1,3,3,0,0,0,132265098,0.04321,-0.00854,0.95313,0.95414,-0.00772,0.00105,-0.00087,0.00784,0.96035,0.00398,0.00899,3,12236,0,224,0.09164,0.05871,0.64061,99,1,93.985,166,1,3,2630,185610,0,0,0.000,11.112,18.541,0,0.000,13.243,31.003,0,0,1,0,6
PPG,1,3268,132270536,158,175445,196116,195437.656,678.344,30.766,1,0,1,1560,42.86,42.86,2,1,16,nan,4,1,53,1,1,4,4,0,0,0,132307028,0.04395,-0.00732,0.96021,0.96124,-0.00745,0.00158,-0.00034,0.00762,0.96124,0.00730,0.00762,3,12242,0,224,0.09164,0.05871,0.64061,99,1,93.985,166,1,3,4321,185610,0,0,77.047,11.112,18.541,1,173.016,13.243,31.003,1,1,1,0,6
PPG,1,3269,132310536,126,175434,196119,195444.469,674.531,53.906,0,0,0,0,42.86,42.86,2,1,16,nan,4,1,53,1,1,5,5,0,0,0,132346405,0.04443,-0.00903,0.95654,0.95762,-0.00798,0.00079,-0.00114,0.00810,0.96270,0.01232,0.00862,3,12295,0,224,0.09164,0.05871,0.64061,99,1,93.985,166,1,3,4331,185610,0,0,0.000,10.907,17.850,0,0.000,13.298,31.210,0,0,1,0,6
PPG,1,3270,132350536,133,175454,196167,195451.688,715.312,80.562,0,0,0,0,42.86,42.86,2,1,16,nan,4,1,53,1,1,6,6,0,0,0,132395057,0.03882,-0.00415,0.96411,0.96490,-0.00985,0.00185,-0.00087,0.01006,0.96490,0.00588,0.01006,3,21623,0,225,0.09164,0.05871,0.64061,99,1,93.985,166,1,3,14588,185610,0,0,0.000,10.907,17.850,0,0.000,13.298,31.210,0,0,1,0,6
PPG,1,3271,132390536,131,175460,196183,195459.000,724.000,103.750,0,0,0,0,42.86,42.86,2,1,16,nan,4,1,53,1,1,7,7,0,0,0,132431822,0.04272,-0.00781,0.95947,0.96046,-0.00905,0.00158,-0.00007,0.00919,0.96295,0.00538,0.00919,3,12191,0,225,0.09164,0.05871,0.64061,99,1,93.985,166,1,3,2585,185610,0,0,0.000,10.907,17.850,0,0.000,13.298,31.210,0,0,1,0,6
PPG,1,3272,132430536,130,175472,196240,195466.812,773.188,124.953,0,1,0,0,42.86,42.86,2,1,16,nan,4,1,53,1,1,8,8,0,0,0,132468573,0.04272,-0.00781,0.95874,0.95972,-0.00692,0.00158,-0.00034,0.00710,0.96321,0.00621,0.00910,3,12266,0,225,0.09164,0.05871,0.64061,99,1,93.985,166,1,3,2585,185610,0,0,0.000,10.907,17.850,0,0.000,13.298,31.210,0,0,1,0,6
PPG,1,3273,132470536,130,175472,196211,195474.250,736.750,135.734,0,0,0,0,42.86,42.86,2,1,16,nan,4,1,53,1,1,9,9,0,0,0,132505060,0.04199,-0.00537,0.95361,0.95455,-0.00772,0.00158,-0.00061,0.00790,0.95484,0.00488,0.00871,3,12120,0,225,0.09164,0.05871,0.64061,99,1,93.985,166,1,3,2606,185610,0,0,0.000,10.907,17.850,0,0.000,13.298,31.210,0,0,1,0,6
PPG,1,3274,132510536,142,175449,196172,195481.234,690.766,130.172,0,0,0,0,42.86,42.86,2,1,16,nan,4,1,53,1,1,10,10,0,0,0,132546706,0.04053,-0.01147,0.95581,0.95674,-0.00745,0.00158,-0.00007,0.00762,0.96237,0.00639,0.00871,3,12192,0,225,0.09164,0.05871,0.64061,99,1,93.985,166,1,3,4311,185610,0,0,0.000,10.907,17.850,0,0.000,13.298,31.210,0,0,1,0,6
PPG,1,3275,132550536,129,175402,196089,195487.312,601.688,119.422,0,0,0,0,42.86,42.86,2,1,16,nan,4,1,53,1,1,11,11,0,0,0,132585741,0.04077,-0.00684,0.95923,0.96012,-0.00718,0.00398,-0.00007,0.00821,0.96669,0.01232,0.00859,3,12132,0,225,0.09164,0.05871,0.64061,99,1,93.985,166,1,3,4299,185610,0,0,0.000,10.907,17.850,0,0.000,13.298,31.210,0,0,1,0,6
PPG,1,3276,132590536,131,175369,196037,195492.812,544.188,103.344,0,0,0,0,42.86,42.86,2,1,16,nan,4,1,53,1,1,12,12,0,0,0,132624779,0.04224,-0.00659,0.95850,0.95945,-0.00798,0.00265,-0.00034,0.00842,0.96553,0.00541,0.00875,3,12121,0,225,0.09164,0.05871,0.64061,99,1,93.985,166,1,3,2598,185610,0,0,0.000,10.907,17.850,0,0.000,13.298,31.210,0,0,1,0,6
PPG,1,3277,132630536,129,175371,196036,195498.250,537.750,81.875,0,0,0,0,42.86,42.86,2,1,16,nan,4,1,53,1,1,13,13,0,0,0,132666471,0.04028,-0.00513,0.95996,0.96082,-0.00665,0.00212,-0.00061,0.00701,0.96082,0.00117,0.00815,3,12121,0,225,0.09164,0.05871,0.64061,99,1,93.985,166,1,3,4302,185610,0,0,0.000,10.907,17.850,0,0.000,13.298,31.210,0,0,1,0,6
PPG,1,3278,132670536,128,175364,196050,195503.766,546.234,60.688,0,0,0,0,42.86,42.86,2,1,16,nan,4,1,53,1,1,14,14,0,0,0,132705437,0.04565,-0.00757,0.96143,0.96254,-0.00852,0.00238,-0.00061,0.00886,0.96254,0.00280,0.00886,3,12125,0,225,0.09164,0.05871,0.64061,99,1,93.985,166,1,3,4296,185610,0,0,0.000,10.907,17.850,0,0.000,13.298,31.210,0,0,1,0,6
PPG,1,3279,132710536,134,175364,196053,195509.266,543.734,31.828,0,0,0,0,42.86,42.86,2,1,16,nan,4,1,53,1,1,15,15,0,0,0,132744447,0.04175,-0.00391,0.95508,0.95600,-0.00692,0.00265,-0.00061,0.00743,0.95758,0.00622,0.00841,3,12123,0,225,0.09164,0.05871,0.64061,99,1,93.985,166,1,3,2608,185610,0,0,0.000,10.907,17.850,0,0.000,13.298,31.210,0,0,1,0,6
PPG,1,3280,132750536,512,175341,196043,195514.609,528.391,3.328,0,0,0,0,42.86,42.86,2,1,16,99.00,0,1,53,1,1,16,16,0,0,0,132786020,0.04077,-0.00635,0.95483,0.95573,-0.00798,0.00158,-0.00061,0.00816,0.96021,0.00421,0.00874,3,12104,0,225,0.09573,0.06028,0.62967,99,1,94.258,187,1,3,4294,185610,0,0,0.000,10.907,17.850,0,0.000,13.298,31.210,0,0,1,0,6
PPG,1,3281,132790536,202,175314,195993,195519.391,473.609,-27.250,1,0,1,520,46.88,46.88,2,1,16,99.00,0,1,53,1,1,17,17,0,0,0,132825408,0.04419,-0.00610,0.95483,0.95588,-0.00825,0.00318,-0.00087,0.00889,0.95745,0.00172,0.00889,3,12115,0,225,0.09573,0.06028,0.62967,99,1,94.258,187,1,3,2601,185610,0,0,84.672,10.907,17.850,1,149.953,13.298,31.210,1,1,1,0,6
PPG,1,3282,132830536,128,175304,195947,195523.672,423.328,-50.188,0,0,0,0,46.88,46.88,2,1,16,99.00,0,1,53,1,1,18,18,0,0,0,132867230,0.03906,-0.00781,0.96387,0.96469,-0.00772,0.00185,-0.00007,0.00794,0.96469,0.01353,0.00826,3,12132,0,225,0.09573,0.06028,0.62967,99,1,94.258,187,1,3,4300,185610,0,0,0.000,10.776,17.407,0,0.000,13.202,30.848,0,0,1,0,6
PPG,1,3283,132870536,127,175285,195959,195528.031,430.969,-64.219,0,0,0,0,46.88,46.88,2,1,16,99.00,0,1,53,1,1,19,19,0,0,0,132906276,0.04102,-0.00415,0.96118,0.96207,-0.00852,0.00185,-0.00167,0.00887,0.96207,0.00723,0.00887,3,12117,0,225,0.09573,0.06028,0.62967,99,1,94.258,187,1,3,4301,185610,0,0,0.000,10.776,17.407,0,0.000,13.202,30.848,0,0,1,0,6
PPG,1,3284,132910536,185,175311,195994,195532.688,461.312,-73.422,0,0,0,0,46.88,46.88,2,1,16,99.00,0,1,53,1,1,20,20,0,0,0,132945308,0.04126,-0.00757,0.95581,0.95673,-0.00798,0.00185,-0.00141,0.00831,0.96118,0.00635,0.00869,3,12124,0,225,0.09573,0.06028,0.62967,99,1,94.258,187,1,3,2633,185610,0,0,0.000,10.776,17.407,0,0.000,13.202,30.848,0,0,1,0,6
PPG,1,3285,132950536,129,175297,195999,195537.344,461.656,-81.219,0,0,0,0,46.88,46.88,2,1,16,99.00,0,1,53,1,1,21,21,0,0,0,132987272,0.04272,-0.00659,0.95117,0.95215,-0.00772,0.00158,-0.00034,0.00788,0.95992,0.00776,0.00836,3,12130,0,225,0.09573,0.06028,0.62967,99,1,94.258,187,1,3,4296,185610,0,0,0.000,10.776,17.407,0,0.000,13.202,30.848,0,0,1,0,6
PPG,1,3286,132990536,129,175292,196025,195542.219,482.781,-84.219,0,0,0,0,46.88,46.88,2,1,16,99.00,0,1,53,1,1,22,22,0,0,0,133026297,0.04028,-0.00635,0.95605,0.95692,-0.00825,0.00238,-0.00114,0.00866,0.95905,0.00690,0.00888,3,12119,0,225,0.09573,0.06028,0.62967,99,1,94.258,187,1,3,4303,185610,0,0,0.000,10.776,17.407,0,0.000,13.202,30.848,0,0,1,0,6
PPG,1,3287,133030536,128,175338,196086,195547.656,538.344,-75.531,0,0,0,0,46.88,46.88,2,1,16,99.00,0,1,53,1,1,23,23,0,0,0,133065391,0.04248,-0.00732,0.95703,0.95800,-0.00798,0.00318,0.00019,0.00860,0.95800,0.00224,0.00860,3,12139,0,225,0.09573,0.06028,0.62967,99,1,94.258,187,1,3,2596,185610,0,0,0.000,10.776,17.407,0,0.000,13.202,30.848,0,0,1,0,6
PPG,1,3288,133070536,129,175363,196153,195553.703,599.297,-54.516,0,0,0,0,46.88,46.88,2,1,16,99.00,0,1,53,1,1,24,24,0,0,0,133107014,0.04370,-0.00366,0.95947,0.96047,-0.00852,0.00238,-0.00007,0.00884,0.96047,0.00466,0.00884,3,12116,0,225,0.09573,0.06028,0.62967,99,1,94.258,187,1,3,4294,185610,0,0,0.000,10.776,17.407,0,0.000,13.202,30.848,0,0,1,0,6
PPG,1,3289,133110536,129,175386,196198,195560.141,637.859,-22.609,0,0,0,0,46.88,46.88,2,1,16,99.00,0,1,53,1,1,25,25,0,0,0,133146020,0.04614,-0.00903,0.95142,0.95258,-0.00852,0.00292,-0.00007,0.00900,0.95699,0.00441,0.00900,3,12104,0,225,0.09573,0.06028,0.62967,99,1,94.258,187,1,3,4294,185610,0,0,0.000,10.776,17.407,0,0.000,13.202,30.848,0,0,1,0,6
PPG,1,3290,133150536,129,175402,196245,195566.984,678.016,14.344,0,0,0,0,46.88,46.88,2,1,16,99.00,0,1,53,1,1,26,26,0,0,0,133185180,0.04053,-0.00488,0.95972,0.96058,-0.00798,0.00158,-0.00087,0.00819,0.96425,0.00745,0.00917,3,12117,0,225,0.09573,0.06028,0.62967,99,1,94.258,187,1,3,2603,185610,0,0,0.000,10.776,17.407,0,0.000,13.202,30.848,0,0,1,0,6
PPG,1,3291,133190536,128,175401,196262,195573.938,688.062,48.688,0,0,0,0,46.88,46.88,2,1,16,99.00,0,1,53,1,1,27,27,0,0,0,133226811,0.04321,-0.00610,0.94873,0.94973,-0.00745,0.00158,-0.00007,0.00762,0.96112,0.00854,0.00914,3,12115,0,225,0.09573,0.06028,0.62967,99,1,94.258,187,1,3,4307,185610,0,0,0.000,10.776,17.407,0,0.000,13.202,30.848,0,0,1,0,6
PPG,1,3292,133230536,127,175417,196271,195580.906,690.094,85.984,0,0,0,0,46.88,46.88,2,1,16,99.00,0,1,53,1,1,28,28,0,0,0,133265936,0.04077,-0.00781,0.95752,0.95842,-0.00772,0.00238,0.00046,0.00809,0.95842,0.00390,0.00814,3,12158,0,225,0.09573,0.06028,0.62967,99,1,94.258,187,1,3,4301,185610,0,0,0.000,10.776,17.407,0,0.000,13.202,30.848,0,0,1,0,6
PPG,1,3293,133270536,130,175440,196326,195588.359,737.641,123.234,0,1,0,0,46.88,46.88,2,1,16,99.00,0,1,53,1,1,29,29,0,0,0,133304973,0.04272,-0.00220,0.95996,0.96091,-0.00798,0.00292,-0.00114,0.00857,0.96286,0.00534,0.00884,3,12117,0,225,0.09573,0.06028,0.62967,99,1,94.258,187,1,3,2598,185610,0,0,0.000,10.776,17.407,0,0.000,13.202,30.848,0,0,1,0,6
PPG,1,3294,133310536,128,175460,196360,195596.078,763.922,152.984,0,0,0,0,46.88,46.88,2,1,16,99.00,0,1,53,1,1,30,30,0,0,0,133346619,0.04492,-0.00879,0.95679,0.95788,-0.00878,0.00158,-0.00194,0.00913,0.95788,0.00849,0.00913,3,12124,0,225,0.09573,0.06028,0.62967,99,1,94.258,187,1,3,4296,185610,0,0,0.000,10.776,17.407,0,0.000,13.202,30.848,0,0,1,0,6
PPG,1,3295,133350536,135,175478,196361,195603.734,757.266,169.094,0,0,0,0,46.88,46.88,2,1,16,99.00,0,1,53,1,1,31,31,0,0,0,133395008,0.04248,-0.00854,0.96240,0.96338,-0.00905,0.00212,-0.00061,0.00931,0.96338,0.00740,0.00931,3,21434,0,226,0.09573,0.06028,0.62967,99,1,94.258,187,1,3,14467,185610,0,0,0.000,10.776,17.407,0,0.000,13.202,30.848,0,0,1,0,6
PPG,1,3296,133390536,129,175483,196385,195611.547,773.453,178.422,0,0,0,0,46.88,46.88,2,1,16,99.00,0,1,53,1,1,0,0,0,0,0,133431518,0.04053,-0.00684,0.95337,0.95425,-0.00798,0.00212,-0.00034,0.00827,0.96067,0.00723,0.00989,3,12110,0,226,0.09573,0.06028,0.62967,99,1,94.258,187,1,3,2590,185610,0,0,0.000,10.776,17.407,0,0.000,13.202,30.848,0,0,1,0,6
PPG,1,3297,133430536,129,175484,196408,195619.516,788.484,183.094,0,0,0,0,46.88,46.88,2,1,16,99.00,0,1,53,1,1,1,1,0,0,0,133467977,0.04248,-0.00415,0.95532,0.95628,-0.00745,0.00185,-0.00034,0.00768,0.96250,0.00869,0.00828,3,12162,0,226,0.09573,0.06028,0.62967,99,1,94.258,187,1,3,4305,185610,0,0,0.000,10.776,17.407,0,0.000,13.202,30.848,0,0,1,0,6
PPG,1,3298,133470536,129,175461,196382,195627.141,754.859,183.641,0,0,0,0,46.88,46.88,2,1,16,99.00,0,1,53,1,1,2,2,0,0,0,133506996,0.04395,-0.00732,0.95190,0.95295,-0.00745,0.00185,-0.00007,0.00768,0.96344,0.01050,0.00849,3,12115,0,226,0.09573,0.06028,0.62967,99,1,94.258,187,1,3,4294,185610,0,0,0.000,10.776,17.407,0,0.000,13.202,30.848,0,0,1,0,6
PPG,1,3299,133510536,129,175489,196423,195635.094,787.906,186.859,0,0,0,0,46.88,46.88,2,1,16,99.00,0,1,53,1,1,3,3,0,0,0,133546010,0.04272,-0.00757,0.95850,0.95948,-0.00745,0.00158,-0.00087,0.00767,0.95948,0.00372,0.00911,3,12108,0,226,0.09573,0.06028,0.62967,99,1,94.258,187,1,3,4295,185610,0,0,0.000,10.776,17.407,0,0.000,13.202,30.848,0,0,1,0,6
PPG,1,3300,133550536,144,175488,196459,195643.328,815.672,185.062,0,0,0,0,46.88,46.88,2,1,16,99.00,0,1,53,1,1,4,4,0,0,0,133585139,0.04419,-0.00537,0.95288,0.95392,-0.00905,0.00238,-0.00167,0.00951,0.95694,0.00254,0.00951,3,12133,0,226,0.09573,0.06028,0.62967,99,1,94.258,187,1,3,2599,185610,0,0,0.000,10.776,17.407,0,0.000,13.202,30.848,0,0,1,0,6
PPG,1,3301,133590536,129,175483,196437,195651.266,785.734,173.859,0,0,0,0,46.88,46.88,2,1,16,99.00,0,1,53,1,1,5,5,0,0,0,133626806,0.04224,-0.00854,0.95215,0.95312,-0.00772,0.00158,-0.00034,0.00788,0.96604,0.01291,0.00788,3,12115,0,226,0.09573,0.06028,0.62967,99,1,94.258,187,1,3,4307,185610,0,0,0.000,10.776,17.407,0,0.000,13.202,30.848,0,0,1,0,6
PPG,1,3302,133630536,199,175446,196390,195658.656,731.344,155.844,0,0,0,0,46.88,46.88,2,1,16,99.00,0,1,53,1,1,6,6,0,0,0,133665853,0.04517,-0.01025,0.95801,0.95913,-0.00798,0.00265,-0.00087,0.00846,0.95913,0.00673,0.00905,3,12120,0,226,0.09573,0.06028,0.62967,99,1,94.258,187,1,3,4301,185610,0,0,0.000,10.776,17.407,0,0.000,13.202,30.848,0,0,1,0,6
PPG,1,3303,133670536,128,175404,196309,195665.156,643.844,127.484,0,0,0,0,46.88,46.88,2,1,16,99.00,0,1,53,1,1,7,7,0,0,0,133705015,0.04102,-0.00439,0.95483,0.95572,-0.00798,0.00158,0.00019,0.00814,0.95982,0.00334,0.00814,3,12118,0,226,0.09573,0.06028,0.62967,99,1,94.258,187,1,3,2597,185610,0,0,0.000,10.776,17.407,0,0.000,13.202,30.848,0,0,1,0,6
PPG,1,3304,133710536,129,175397,196284,195671.344,612.656,95.266,0,0,0,0,46.88,46.88,2,1,16,99.00,0,1,53,1,1,8,8,0,0,0,133746646,0.04565,-0.00732,0.95288,0.95400,-0.00852,0.00185,-0.00061,0.00874,0.95851,0.00293,0.00899,3,12120,0,226,0.09573,0.06028,0.62967,99,1,94.258,187,1,3,4296,185610,0,0,0.000,10.776,17.407,0,0.000,13.202,30.848,0,0,1,0,6
PPG,1,3305,133750536,522,175427,196327,195677.906,649.094,71.031,0,0,0,0,46.88,46.88,2,1,16,99.00,0,1,53,1,1,9,9,0,0,0,133785783,0.04346,-0.00562,0.95752,0.95852,-0.00692,0.00238,-0.00141,0.00745,0.96132,0.00738,0.00775,3,12180,0,226,0.09135,0.06616,0.72428,96,1,91.893,100,1,3,4298,185610,0,0,0.000,10.776,17.407,0,0.000,13.202,30.848,0,0,1,0,6
PPG,1,3306,133790536,181,175417,196336,195684.484,651.516,43.047,0,0,0,0,46.88,46.88,2,1,16,99.00,0,1,53,1,1,10,10,0,0,0,133825546,0.04028,-0.00854,0.96460,0.96548,-0.00985,0.00292,-0.00114,0.01033,0.96548,0.00649,0.01033,3,12221,0,226,0.09135,0.06616,0.72428,96,1,91.893,100,1,3,2598,185610,0,0,0.000,10.776,17.407,0,0.000,13.202,30.848,0,0,1,0,6
PPG,1,3307,133830536,150,175408,196350,195691.141,658.859,14.281,1,0,1,1040,57.69,57.69,2,1,16,99.00,0,1,53,1,1,11,11,0,0,0,133867295,0.04028,-0.00537,0.96240,0.96326,-0.00852,0.00265,-0.00087,0.00896,0.96326,0.00578,0.00921,3,12116,0,226,0.09135,0.06616,0.72428,96,1,91.893,100,1,3,4317,185610,0,0,159.594,10.776,17.407,1,271.078,13.202,30.848,1,1,1,0,6
PPG,1,3308,133870536,125,175424,196380,195698.031,681.969,-5.234,0,0,0,0,57.69,57.69,2,1,16,99.00,0,1,53,1,1,12,12,0,0,0,133906425,0.04248,-0.01074,0.95166,0.95267,-0.00878,0.00158,0.00019,0.00893,0.96336,0.00885,0.00924,3,12158,0,226,0.09135,0.06616,0.72428,96,1,91.893,100,1,3,4326,185610,0,0,0.000,11.130,18.601,0,0.000,13.875,33.389,0,0,1,0,6
PPG,1,3309,133910536,129,175412,196400,195705.047,694.953,-13.891,0,0,0,0,57.69,57.69,2,1,16,99.00,0,1,53,1,1,13,13,0,0,0,133945546,0.04468,-0.00757,0.95630,0.95737,-0.00772,0.00265,-0.00007,0.00816,0.96040,0.00531,0.00869,3,12105,0,226,0.09135,0.06616,0.72428,96,1,91.893,100,1,3,2690,185610,0,0,0.000,11.130,18.601,0,0.000,13.875,33.389,0,0,1,0,6
PPG,1,3310,133950536,128,175429,196405,195712.047,692.953,-8.172,0,0,0,0,57.69,57.69,2,1,16,99.00,0,1,53,1,1,14,14,0,0,0,133987371,0.04370,-0.00952,0.95825,0.95930,-0.00878,0.00212,-0.00034,0.00904,0.96199,0.00718,0.00949,3,12161,0,226,0.09135,0.06616,0.72428,96,1,91.893,100,1,3,4311,185610,0,0,0.000,11.130,18.601,0,0.000,13.875,33.389,0,0,1,0,6
PPG,1,3311,133990536,133,175448,196450,195719.422,730.578,6.125,0,0,0,0,57.69,57.69,2,1,16,99.00,0,1,53,1,1,15,15,0,0,0,134026859,0.04126,-0.00537,0.95288,0.95379,-0.00905,-0.00215,0.00019,0.00930,0.96583,0.01204,0.00930,3,12256,0,226,0.09135,0.06616,0.72428,96,1,91.893,100,1,3,4335,185610,0,0,0.000,11.130,18.601,0,0.000,13.875,33.389,0,0,1,0,6
PPG,1,3312,134030536,128,175459,196481,195727.031,753.969,17.625,0,0,0,0,57.69,57.69,2,1,16,99.00,0,1,53,1,1,16,16,0,0,0,134066213,0.03833,-0.00928,0.95361,0.95443,-0.00772,0.00212,-0.00061,0.00802,0.95959,0.00516,0.00802,3,12240,0,226,0.09135,0.06616,0.72428,96,1,91.893,100,1,3,4332,185610,0,0,0.000,11.130,18.601,0,0.000,13.875,33.389,0,0,1,0,6
PPG,1,3313,134070536,145,175454,196497,195734.734,762.266,32.078,0,0,0,0,57.69,57.69,2,1,16,99.00,0,1,53,1,1,17,17,0,0,0,134105487,0.04614,-0.00488,0.95264,0.95377,-0.00878,0.00318,0.00046,0.00935,0.96385,0.01009,0.00935,3,12203,0,226,0.09135,0.06616,0.72428,96,1,91.893,100,1,3,2637,185610,0,0,0.000,11.130,18.601,0,0.000,13.875,33.389,0,0,1,0,6
PPG,1,3314,134110536,131,175452,196487,195742.250,744.750,45.312,0,0,0,0,57.69,57.69,2,1,16,99.00,0,1,53,1,1,18,18,0,0,0,134147536,0.04175,-0.00635,0.95996,0.96089,-0.00852,0.00478,0.00046,0.00978,0.96089,0.00660,0.00978,3,12255,0,226,0.09135,0.06616,0.72428,96,1,91.893,100,1,3,4341,185610,0,0,0.000,11.130,18.601,0,0.000,13.875,33.389,0,0,1,0,6
PPG,1,3315,134150536,139,175455,196499,195749.812,749.188,55.406,0,0,0,0,57.69,57.69,2,1,16,99.00,0,1,53,1,1,19,19,0,0,0,134186967,0.03760,-0.00757,0.95386,0.95463,-0.00825,0.00318,-0.00034,0.00885,0.95848,0.00385,0.00960,3,12310,0,226,0.09135,0.06616,0.72428,96,1,91.893,100,1,3,4333,185610,0,0,0.000,11.130,18.601,0,0.000,13.875,33.389,0,0,1,0,6
PPG,1,3316,134190536,128,175460,196518,195757.500,760.500,65.625,0,0,0,0,57.69,57.69,2,1,16,99.00,0,1,53,1,1,20,20,0,0,0,134226432,0.04272,-0.00610,0.95386,0.95483,-0.00692,0.00212,-0.00087,0.00729,0.95714,0.00251,0.00766,3,12264,0,226,0.09135,0.06616,0.72428,96,1,91.893,100,1,3,4342,185610,0,0,0.000,11.130,18.601,0,0.000,13.875,33.389,0,0,1,0,6
PPG,1,3317,134230536,149,175465,196545,195765.375,779.625,78.766,0,0,0,0,57.69,57.69,2,1,16,99.00,0,1,53,1,1,21,21,0,0,0,134265690,0.04639,-0.01001,0.95654,0.95772,-0.00852,0.00185,0.00019,0.00872,0.96202,0.00719,0.00872,3,12198,0,226,0.09135,0.06616,0.72428,96,1,91.893,100,1,3,2653,185610,0,0,0.000,11.130,18.601,0,0.000,13.875,33.389,0,0,1,0,6
PPG,1,3318,134270536,148,175465,196566,195773.375,792.625,86.125,0,0,0,0,57.69,57.69,2,1,16,99.00,0,1,53,1,1,22,22,0,0,0,134307799,0.04248,-0.00537,0.95410,0.95506,-0.00852,0.00185,-0.00007,0.00871,0.96325,0.00861,0.00879,3,12268,0,226,0.09135,0.06616,0.72428,96,1,91.893,100,1,3,4358,185610,0,0,0.000,11.130,18.601,0,0.000,13.875,33.389,0,0,1,0,6
PPG,1,3319,134310536,129,175467,196577,195781.406,795.594,92.156,0,0,0,0,57.69,57.69,2,1,16,99.00,0,1,53,1,1,23,23,0,0,0,134347132,0.03979,-0.00513,0.95508,0.95592,-0.00772,0.00265,-0.00114,0.00824,0.95799,0.00230,0.00826,3,12196,0,226,0.09135,0.06616,0.72428,96,1,91.893,100,1,3,4336,185610,0,0,0.000,11.130,18.601,0,0.000,13.875,33.389,0,0,1,0,6
PPG,1,3320,134350536,135,175471,196613,195789.719,823.281,101.031,0,0,0,0,57.69,57.69,2,1,16,99.00,0,1,53,1,1,24,24,0,0,0,134396122,0.04224,-0.00439,0.95386,0.95480,-0.00718,0.00212,-0.00141,0.00762,0.95893,0.00618,0.00859,3,21923,0,227,0.09135,0.06616,0.72428,96,1,91.893,100,1,3,14869,185610,0,0,0.000,11.130,18.601,0,0.000,13.875,33.389,0,0,1,0,6
PPG,1,3321,134390536,130,175484,196651,195798.328,852.672,113.750,0,0,0,0,57.69,57.69,2,1,16,99.00,0,1,53,1,1,25,25,0,0,0,134432861,0.04126,-0.00684,0.95386,0.95477,-0.00798,0.00132,0.00019,0.00809,0.95477,0.00087,0.00912,3,12221,0,227,0.09135,0.06616,0.72428,96,1,91.893,100,1,3,2612,185610,0,0,0.000,11.130,18.601,0,0.000,13.875,33.389,0,0,1,0,6
PPG,1,3322,134430536,142,175457,196600,195806.344,793.656,117.672,0,0,0,0,57.69,57.69,2,1,16,99.00,0,1,53,1,1,26,26,0,0,0,134469455,0.04028,-0.00537,0.95801,0.95887,-0.00905,0.00105,-0.00114,0.00918,0.96731,0.00881,0.00918,3,12182,0,227,0.09135,0.06616,0.72428,96,1,91.893,100,1,3,2603,185610,0,0,0.000,11.130,18.601,0,0.000,13.875,33.389,0,0,1,0,6
PPG,1,3323,134470536,141,175417,196489,195813.172,675.828,104.531,0,0,0,0,57.69,57.69,2,1,16,99.00,0,1,53,1,1,27,27,0,0,0,134506196,0.04346,-0.00269,0.96021,0.96119,-0.00905,0.00105,-0.00034,0.00912,0.96303,0.00416,0.00912,3,12216,0,227,0.09135,0.06616,0.72428,96,1,91.893,100,1,3,4330,185610,0,0,0.000,11.130,18.601,0,0.000,13.875,33.389,0,0,1,0,6
PPG,1,3324,134510536,129,175352,196377,195818.812,558.188,75.875,0,0,0,0,57.69,57.69,2,1,16,99.00,0,1,53,1,1,28,28,0,0,0,134545480,0.04004,-0.00830,0.95386,0.95473,-0.00772,0.00185,-0.00087,0.00798,0.95904,0.00459,0.00845,3,12234,0,227,0.09135,0.06616,0.72428,96,1,91.893,100,1,3,2632,185610,0,0,0.000,11.130,18.601,0,0.000,13.875,33.389,0,0,1,0,6
PPG,1,3325,134550536,206,175335,196344,195824.062,519.938,43.328,0,0,0,0,57.69,57.69,2,1,16,99.00,0,1,53,1,1,29,29,0,0,0,134587516,0.04346,-0.00610,0.94873,0.94974,-0.00825,0.00265,-0.00114,0.00874,0.96174,0.01199,0.00874,3,12238,0,227,0.09135,0.06616,0.72428,96,1,91.893,100,1,3,4315,185610,0,0,0.000,11.130,18.601,0,0.000,13.875,33.389,0,0,1,0,6
PPG,1,3326,134590536,127,175318,196318,195829.000,489.000,7.234,0,0,0,0,57.69,57.69,2,1,16,99.00,0,1,53,1,1,30,30,0,0,0,134626857,0.04199,-0.00732,0.95947,0.96042,-0.00852,0.00212,0.00019,0.00878,0.96223,0.01249,0.00878,3,12125,0,227,0.09135,0.06616,0.72428,96,1,91.893,100,1,3,4307,185610,0,0,0.000,11.130,18.601,0,0.000,13.875,33.389,0,0,1,0,6
PPG,1,3327,134630536,129,175303,196303,195833.734,469.266,-34.719,0,0,0,0,57.69,57.69,2,1,16,99.00,0,1,53,1,1,31,31,0,0,0,134666034,0.04199,-0.00562,0.95850,0.95943,-0.00798,0.00345,-0.00034,0.00870,0.95943,0.00869,0.00941,3,12110,0,227,0.09135,0.06616,0.72428,96,1,91.893,100,1,3,2596,185610,0,0,0.000,11.130,18.601,0,0.000,13.875,33.389,0,0,1,0,6
PPG,1,3328,134670536,128,175276,196271,195838.109,432.891,-83.547,0,0,0,0,57.69,57.69,2,1,16,99.00,0,1,53,1,1,0,0,0,0,0,134707643,0.04004,-0.00854,0.96069,0.96157,-0.00772,0.00318,-0.00141,0.00846,0.96162,0.00344,0.00944,3,12144,0,227,0.09135,0.06616,0.72428,96,1,91.893,100,1,3,4295,185610,0,0,0.000,11.130,18.601,0,0.000,13.875,33.389,0,0,1,0,6
PPG,1,3329,134710536,129,175285,196317,195842.891,474.109,-119.828,0,0,0,0,57.69,57.69,2,1,16,99.00,0,1,53,1,1,1,1,0,0,0,134746666,0.04248,-0.00684,0.95459,0.95556,-0.00772,0.00265,-0.00061,0.00818,0.96016,0.00309,0.00933,3,12126,0,227,0.09135,0.06616,0.72428,96,1,91.893,100,1,3,4302,185610,0,0,52.844,11.130,18.601,1,0.000,13.875,33.389,0,0,1,0,6
PPG,1,3330,134750536,536,175253,196280,195847.266,432.734,-143.438,1,0,1,900,57.69,57.69,2,1,16,99.00,0,1,53,1,1,2,2,0,0,0,134785666,0.04688,-0.00366,0.95996,0.96111,-0.00852,0.00318,0.00019,0.00909,0.96217,0.00661,0.00909,3,12120,0,227,0.10734,0.05600,0.52176,97,1,96.956,150,1,3,2607,185610,0,0,0.000,11.130,18.601,0,131.562,13.875,33.389,1,1,1,0,7
PPG,1,3331,134790536,180,175234,196219,195850.984,368.016,-154.453,0,0,0,0,57.69,57.69,2,1,16,99.00,0,1,53,1,1,3,3,0,0,0,134827864,0.04321,-0.00317,0.95874,0.95972,-0.00798,0.00265,-0.00061,0.00843,0.96271,0.00354,0.00969,3,12125,0,227,0.10734,0.05600,0.52176,97,1,96.956,150,1,3,4312,185610,0,0,0.000,10.772,17.391,0,0.000,13.592,32.320,0,0,1,0,7
PPG,1,3332,134830536,127,175200,196160,195854.078,305.922,-164.688,0,0,0,0,57.69,57.69,2,1,16,99.00,0,1,53,1,1,4,4,0,0,0,134866903,0.04199,-0.00684,0.94824,0.94920,-0.00825,0.00238,-0.00007,0.00859,0.95761,0.00588,0.00871,3,12117,0,227,0.10734,0.05600,0.52176,97,1,96.956,150,1,3,4297,185610,0,0,0.000,10.772,17.391,0,0.000,13.592,32.320,0,0,1,0,7
PPG,1,3333,134870536,129,175192,196140,195856.938,283.062,-172.281,0,0,0,0,57.69,57.69,2,1,16,99.00,0,1,53,1,1,5,5,0,0,0,134905930,0.04346,-0.00928,0.95557,0.95660,-0.00772,0.00185,-0.00034,0.00794,0.95820,0.00636,0.00929,3,12138,0,227,0.10734,0.05600,0.52176,97,1,96.956,150,1,3,2602,185610,0,0,0.000,10.772,17.391,0,0.000,13.592,32.320,0,0,1,0,7
PPG,1,3334,134910536,126,175171,196110,195859.469,250.531,-180.984,0,0,0,0,57.69,57.69,2,1,16,99.00,0,1,53,1,1,6,6,0,0,0,134947623,0.04272,-0.00610,0.95703,0.95800,-0.00718,0.00292,-0.00167,0.00793,0.96011,0.00223,0.00838,3,12129,0,227,0.10734,0.05600,0.52176,97,1,96.956,150,1,3,4296,185610,0,0,0.000,10.772,17.391,0,0.000,13.592,32.320,0,0,1,0,7
PPG,1,3335,134950536,127,175193,196144,195862.312,281.688,-181.375,0,0,0,0,57.69,57.69,2,1,16,99.00,0,1,53,1,1,7,7,0,0,0,134986610,0.04492,-0.00439,0.95923,0.96029,-0.00798,0.00292,0.00019,0.00850,0.96029,0.00176,0.00872,3,12124,0,227,0.10734,0.05600,0.52176,97,1,96.956,150,1,3,4298,185610,0,0,0.000,10.772,17.391,0,0.000,13.592,32.320,0,0,1,0,7
PPG,1,3336,134990536,128,175198,196136,195865.047,270.953,-188.141,0,0,0,0,57.69,57.69,2,1,16,99.00,0,1,53,1,1,8,8,0,0,0,135025671,0.04224,-0.00464,0.95557,0.95651,-0.00798,0.00158,0.00019,0.00814,0.96430,0.00843,0.00940,3,12115,0,227,0.10734,0.05600,0.52176,97,1,96.956,150,1,3,2619,185610,0,0,0.000,10.772,17.391,0,0.000,13.592,32.320,0,0,1,0,7
PPG,1,3337,135030536,129,175169,196109,195867.484,241.516,-190.781,0,0,0,0,57.69,57.69,2,1,16,99.00,0,1,53,1,1,9,9,0,0,0,135067278,0.03955,-0.00806,0.96216,0.96300,-0.00878,0.00345,-0.00061,0.00945,0.96300,0.00407,0.00945,3,12124,0,227,0.10734,0.05600,0.52176,97,1,96.956,150,1,3,4316,185610,0,0,0.000,10.772,17.391,0,0.000,13.592,32.320,0,0,1,0,7
PPG,1,3338,135070536,127,175154,196092,195869.734,222.266,-185.219,0,0,0,0,57.69,57.69,2,1,16,99.00,0,1,53,1,1,10,10,0,0,0,135106300,0.04370,-0.00830,0.95337,0.95441,-0.00852,0.00238,-0.00061,0.00886,0.96134,0.00610,0.00959,3,12162,0,227,0.10734,0.05600,0.52176,97,1,96.956,150,1,3,4337,185610,0,0,0.000,10.772,17.391,0,0.000,13.592,32.320,0,0,1,0,7
PPG,1,3339,135110536,129,175140,196077,195871.812,205.188,-172.078,0,0,0,0,57.69,57.69,2,1,16,99.00,0,1,53,1,1,11,11,0,0,0,135145624,0.04614,-0.00537,0.95264,0.95377,-0.00852,0.00238,-0.00061,0.00886,0.96226,0.00849,0.00886,3,12116,0,227,0.10734,0.05600,0.52176,97,1,96.956,150,1,3,2604,185610,0,0,0.000,10.772,17.391,0,0.000,13.592,32.320,0,0,1,0,7
PPG,1,3340,135150536,128,175145,196055,195873.641,181.359,-156.312,0,0,0,0,57.69,57.69,2,1,16,99.00,0,1,53,1,1,12,12,0,0,0,135187344,0.04053,-0.01050,0.95117,0.95209,-0.00798,0.00212,-0.00007,0.00826,0.95769,0.00516,0.00826,3,12114,0,227,0.10734,0.05600,0.52176,97,1,96.956,150,1,3,4304,185610,0,0,0.000,10.772,17.391,0,0.000,13.592,32.320,0,0,1,0,7
PPG,1,3341,135190536,128,175119,196030,195875.203,154.797,-136.688,0,0,0,0,57.69,57.69,2,1,16,99.00,0,1,53,1,1,13,13,0,0,0,135226467,0.04395,-0.00928,0.96240,0.96345,-0.00745,0.00185,-0.00007,0.00768,0.96345,0.00667,0.00814,3,12151,0,227,0.10734,0.05600,0.52176,97,1,96.956,150,1,3,4341,185610,0,0,0.000,10.772,17.391,0,0.000,13.592,32.320,0,0,1,0,7
PPG,1,3342,135230536,127,175088,195968,195876.125,91.875,-130.234,0,0,0,0,57.69,57.69,2,1,16,99.00,0,1,53,1,1,14,14,0,0,0,135265741,0.04004,-0.00977,0.95776,0.95865,-0.00798,0.00372,-0.00034,0.00881,0.96436,0.00553,0.00881,3,12233,0,227,0.10734,0.05600,0.52176,97,1,96.956,150,1,3,2603,185610,0,0,0.000,10.772,17.391,0,0.000,13.592,32.320,0,0,1,0,7
PPG,1,3343,135270536,147,175062,195909,195876.453,32.547,-133.672,0,0,0,0,57.69,57.69,2,1,16,99.00,0,1,53,1,1,15,15,0,0,0,135307390,0.04468,-0.00269,0.95874,0.95978,-0.00692,0.00425,-0.00034,0.00812,0.95978,0.00122,0.00895,3,12140,0,227,0.10734,0.05600,0.52176,97,1,96.956,150,1,3,4302,185610,0,0,0.000,10.772,17.391,0,0.000,13.592,32.320,0,0,1,0,7
PPG,1,3344,135310536,126,175040,195870,195876.391,-6.391,-142.453,0,0,0,0,57.69,57.69,2,1,16,99.00,0,1,53,1,1,16,16,0,0,0,135346470,0.03711,-0.00806,0.96045,0.96120,-0.00798,0.00292,0.00019,0.00850,0.96120,0.00717,0.00867,3,12127,0,227,0.10734,0.05600,0.52176,97,1,96.956,150,1,3,4305,185610,0,0,0.000,10.772,17.391,0,0.000,13.592,32.320,0,0,1,0,7
PPG,1,3345,135350536,134,175025,195864,195876.266,-12.266,-151.016,0,0,0,0,57.69,57.69,2,1,16,99.00,0,1,53,1,1,17,17,0,0,0,135397357,0.04639,-0.00854,0.95630,0.95746,-0.00772,0.00079,-0.00034,0.00776,0.95746,0.00553,0.00882,3,24033,0,228,0.10734,0.05600,0.52176,97,1,96.956,150,1,3,14451,185610,0,0,0.000,10.772,17.391,0,0.000,13.592,32.320,0,0,1,0,7
PPG,1,3346,135390536,185,175028,195836,195875.859,-39.859,-161.359,0,0,0,0,57.69,57.69,2,1,16,99.00,0,1,53,1,1,18,18,0,0,0,135421764,0.04272,-0.00635,0.95532,0.95630,-0.00718,0.00158,-0.00034,0.00736,0.96042,0.00412,0.00736,2,12233,0,228,0.10734,0.05600,0.52176,97,1,96.956,150,1,3,2594,185610,0,0,0.000,10.772,17.391,0,0.000,13.592,32.320,0,0,1,0,7
PPG,1,3347,135430536,129,174982,195792,195875.016,-83.016,-173.375,0,0,0,0,57.69,57.69,2,1,16,99.00,0,1,53,1,1,19,19,0,0,0,135466521,0.04175,-0.00488,0.95605,0.95698,-0.00772,0.00292,-0.00007,0.00825,0.96247,0.00741,0.00884,3,12299,0,229,0.10734,0.05600,0.52176,97,1,96.956,150,1,3,4339,185610,0,0,0.000,10.772,17.391,0,0.000,13.592,32.320,0,0,1,0,7
PPG,1,3348,135470536,127,175000,195822,195874.484,-52.484,-180.641,0,0,0,0,57.69,57.69,2,1,16,99.00,0,1,53,1,1,20,20,0,0,0,135505959,0.04468,-0.00854,0.95581,0.95689,-0.00825,0.00265,-0.00061,0.00869,0.96119,0.00430,0.00876,3,12266,0,229,0.10734,0.05600,0.52176,97,1,96.956,150,1,3,2643,185610,0,0,0.000,10.772,17.391,0,0.000,13.592,32.320,0,0,1,0,7
PPG,1,3349,135510536,141,175001,195855,195874.297,-19.297,-173.688,0,0,0,0,57.69,57.69,2,1,16,99.00,0,1,53,1,1,21,21,0,0,0,135548015,0.04175,-0.00781,0.95386,0.95480,-0.00798,0.00238,-0.00087,0.00838,0.95869,0.00473,0.00894,3,12246,0,229,0.10734,0.05600,0.52176,97,1,96.956,150,1,3,4332,185610,0,0,0.000,10.772,17.391,0,0.000,13.592,32.320,0,0,1,0,7
PPG,1,3350,135550536,161,175004,195832,195873.875,-41.875,-162.281,1,0,1,820,62.50,62.50,2,1,16,99.00,0,1,53,1,1,22,22,0,0,0,135587462,0.04468,-0.00659,0.95923,0.96029,-0.00692,0.00292,-0.00034,0.00751,0.96029,0.00450,0.00900,3,12255,0,229,0.10734,0.05600,0.52176,97,1,96.956,150,1,3,4342,185610,0,0,40.484,10.772,17.391,1,60.547,13.592,32.320,1,1,1,0,7
PPG,1,3351,135590536,136,175025,195835,195873.484,-38.484,-148.078,0,0,0,0,62.50,62.50,2,1,16,99.00,0,1,53,1,1,23,23,0,0,0,135626959,0.04053,-0.00635,0.95947,0.96035,-0.00772,0.00398,-0.00007,0.00868,0.96035,0.00267,0.00868,3,12250,0,229,0.10734,0.05600,0.52176,97,1,96.956,150,1,3,4336,185610,0,0,0.000,10.381,16.072,0,0.000,12.900,29.709,0,0,1,0,7
PPG,1,3352,135630536,137,174994,195801,195872.766,-71.766,-139.125,0,0,0,0,62.50,62.50,2,1,16,99.00,0,1,53,1,1,24,24,0,0,0,135666312,0.04102,-0.01270,0.95703,0.95799,-0.00745,0.00398,-0.00167,0.00861,0.96588,0.00788,0.00923,3,12260,0,229,0.10734,0.05600,0.52176,97,1,96.956,150,1,3,2635,185610,0,0,0.000,10.381,16.072,0,0.000,12.900,29.709,0,0,1,0,7
PPG,1,3353,135670536,145,175005,195831,195872.344,-41.344,-124.406,0,0,0,0,62.50,62.50,2,1,16,99.00,0,1,53,1,1,25,25,0,0,0,135708213,0.04492,-0.00854,0.95728,0.95837,-0.00718,0.00452,-0.00061,0.00851,0.95837,0.00560,0.00895,3,12228,0,229,0.10734,0.05600,0.52176,97,1,96.956,150,1,3,4321,185610,0,0,0.000,10.381,16.072,0,0.000,12.900,29.709,0,0,1,0,7
PPG,1,3354,135710536,149,175007,195849,195872.109,-23.109,-103.203,0,0,0,0,62.50,62.50,2,1,16,99.00,0,1,53,1,1,26,26,0,0,0,135747688,0.04053,-0.00586,0.95801,0.95888,-0.00825,0.00292,-0.00034,0.00876,0.95963,0.00181,0.00936,3,12244,0,229,0.10734,0.05600,0.52176,97,1,96.956,150,1,3,4338,185610,0,0,0.000,10.381,16.072,0,0.000,12.900,29.709,0,0,1,0,7
PPG,1,3355,135750536,532,175027,195888,195872.266,15.734,-80.969,0,0,0,0,62.50,62.50,2,1,16,98.00,0,1,53,1,1,27,27,0,0,0,135787035,0.04541,-0.00757,0.95410,0.95521,-0.00745,0.00372,-0.00114,0.00840,0.95521,0.00684,0.00866,3,12224,0,229,0.11474,0.08701,0.75832,98,1,91.042,68,1,3,4312,185610,0,0,0.000,10.381,16.072,0,0.000,12.900,29.709,0,0,1,0,7
PPG,1,3356,135790536,184,175009,195863,195872.172,-9.172,-66.188,0,0,0,0,62.50,62.50,2,1,16,98.00,0,1,53,1,1,28,28,0,0,0,135826834,0.04150,-0.00903,0.96143,0.96236,-0.00825,0.00265,-0.00167,0.00882,0.96236,0.00340,0.00882,3,12275,0,229,0.11474,0.08701,0.75832,98,1,91.042,68,1,3,4355,185610,0,0,0.000,10.381,16.072,0,0.000,12.900,29.709,0,0,1,0,7
PPG,1,3357,135830536,135,175008,195875,195872.203,2.797,-48.344,0,0,0,0,62.50,62.50,2,1,16,98.00,0,1,53,1,1,29,29,0,0,0,135866239,0.04053,-0.00610,0.95483,0.95571,-0.00798,0.00238,-0.00167,0.00850,0.96026,0.00377,0.00911,3,12237,0,229,0.11474,0.08701,0.75832,98,1,91.042,68,1,3,2618,185610,0,0,0.000,10.381,16.072,0,0.000,12.900,29.709,0,0,1,0,7
PPG,1,3358,135870536,155,175011,195899,195872.469,26.531,-29.547,0,0,0,0,62.50,62.50,2,1,16,98.00,0,1,53,1,1,30,30,0,0,0,135908097,0.04395,-0.00513,0.96094,0.96196,-0.00718,0.00185,-0.00167,0.00760,0.96213,0.00495,0.00934,3,12209,0,229,0.11474,0.08701,0.75832,98,1,91.042,68,1,3,4328,185610,0,0,0.000,10.381,16.072,0,0.000,12.900,29.709,0,0,1,0,7
PPG,1,3359,135910536,129,175049,195967,195873.406,93.594,-0.328,0,0,0,0,62.50,62.50,2,1,16,98.00,0,1,53,1,1,31,31,0,0,0,135947429,0.04297,-0.00562,0.96265,0.96362,-0.00905,-0.00108,-0.00087,0.00915,0.96362,0.00495,0.00915,3,12258,0,229,0.11474,0.08701,0.75832,98,1,91.042,68,1,3,4344,185610,0,0,0.000,10.381,16.072,0,0.000,12.900,29.709,0,0,1,0,7
PPG,1,3360,135950536,128,175060,196000,195874.672,125.328,26.562,0,0,0,0,62.50,62.50,2,1,16,98.00,0,1,53,1,1,0,0,0,0,0,135986681,0.04541,-0.00757,0.95581,0.95692,-0.00905,0.00052,-0.00114,0.00913,0.96301,0.00424,0.00913,3,12227,0,229,0.11474,0.08701,0.75832,98,1,91.042,68,1,3,4326,185610,0,0,0.000,10.381,16.072,0,0.000,12.900,29.709,0,0,1,0,7
PPG,1,3361,135990536,130,175077,196027,195876.188,150.812,52.125,0,0,0,0,62.50,62.50,2,1,16,98.00,0,1,53,1,1,1,1,0,0,0,136026049,0.04224,-0.00708,0.95825,0.95921,-0.00878,0.00372,0.00019,0.00954,0.95921,0.00172,0.00954,3,12258,0,229,0.11474,0.08701,0.75832,98,1,91.042,68,1,3,2628,185610,0,0,0.000,10.381,16.072,0,0.000,12.900,29.709,0,0,1,0,7
PPG,1,3362,136030536,130,175049,195976,195877.188,98.812,64.312,0,0,0,0,62.50,62.50,2,1,16,98.00,0,1,53,1,1,2,2,0,0,0,136068008,0.04126,-0.00684,0.95850,0.95941,-0.00852,0.00318,-0.00087,0.00913,0.95941,0.00689,0.00941,3,12124,0,229,0.11474,0.08701,0.75832,98,1,91.042,68,1,3,4299,185610,0,0,0.000,10.381,16.072,0,0.000,12.900,29.709,0,0,1,0,7
PPG,1,3363,136070536,128,175049,196000,195878.422,121.578,79.328,0,0,0,0,62.50,62.50,2,1,16,98.00,0,1,53,1,1,3,3,0,0,0,136107297,0.04175,-0.00708,0.95825,0.95919,-0.00718,0.00398,-0.00114,0.00829,0.96102,0.00325,0.00835,3,12122,0,229,0.11474,0.08701,0.75832,98,1,91.042,68,1,3,4303,185610,0,0,0.000,10.381,16.072,0,0.000,12.900,29.709,0,0,1,0,7
PPG,1,3364,136110536,126,175023,196019,195879.828,139.172,92.453,0,0,0,0,62.50,62.50,2,1,16,98.00,0,1,53,1,1,4,4,0,0,0,136146322,0.04224,-0.00610,0.95483,0.95579,-0.00772,0.00212,-0.00141,0.00812,0.95608,0.00311,0.00876,3,12117,0,229,0.11474,0.08701,0.75832,98,1,91.042,68,1,3,2596,185610,0,0,0.000,10.381,16.072,0,0.000,12.900,29.709,0,0,1,0,7
PPG,1,3365,136150536,127,175012,195987,195880.906,106.094,98.875,0,0,0,0,62.50,62.50,2,1,16,98.00,0,1,53,1,1,5,5,0,0,0,136187921,0.03906,-0.00439,0.95996,0.96077,-0.00798,0.00212,-0.00141,0.00838,0.96284,0.00705,0.00838,3,12159,0,229,0.11474,0.08701,0.75832,98,1,91.042,68,1,3,4310,185610,0,0,0.000,10.381,16.072,0,0.000,12.900,29.709,0,0,1,0,7
PPG,1,3366,136190536,148,174976,195895,195881.047,13.953,85.625,0,0,0,0,62.50,62.50,2,1,16,98.00,0,1,53,1,1,6,6,0,0,0,136226897,0.04297,-0.00781,0.95483,0.95583,-0.00772,0.00238,0.00019,0.00808,0.95856,0.00601,0.00850,3,12134,0,229,0.11474,0.08701,0.75832,98,1,91.042,68,1,3,4308,185610,0,0,0.000,10.381,16.072,0,0.000,12.900,29.709,0,0,1,0,7
PPG,1,3367,136230536,127,174974,195919,195881.422,37.578,67.719,0,0,0,0,62.50,62.50,2,1,16,98.00,0,1,53,1,1,7,7,0,0,0,136265868,0.04297,-0.00928,0.95898,0.95999,-0.00772,0.00318,-0.00087,0.00839,0.95999,0.00286,0.00877,3,12109,0,229,0.11474,0.08701,0.75832,98,1,91.042,68,1,3,2602,185610,0,0,0.000,10.381,16.072,0,0.000,12.900,29.709,0,0,1,0,7
PPG,1,3368,136270536,126,174976,195950,195882.109,67.891,50.312,0,0,0,0,62.50,62.50,2,1,16,98.00,0,1,53,1,1,8,8,0,0,0,136307437,0.04468,-0.00391,0.96094,0.96198,-0.00825,0.00318,-0.00087,0.00889,0.96198,0.00276,0.00902,3,12119,0,229,0.11474,0.08701,0.75832,98,1,91.042,68,1,3,4296,185610,0,0,0.000,10.381,16.072,0,0.000,12.900,29.709,0,0,1,0,7
PPG,1,3369,136310536,132,174996,195978,195883.062,94.938,44.453,0,0,0,0,62.50,62.50,2,1,16,98.00,0,1,53,1,1,9,9,0,0,0,136346475,0.03833,-0.00317,0.95605,0.95683,-0.00825,0.00212,-0.00114,0.00859,0.96131,0.00449,0.00859,3,12114,0,229,0.11474,0.08701,0.75832,98,1,91.042,68,1,3,2598,185610,0,0,0.000,10.381,16.072,0,0.000,12.900,29.709,0,0,1,0,7
PPG,1,3370,136350536,134,175014,196016,195884.391,131.609,37.531,0,0,0,0,62.50,62.50,2,1,16,98.00,0,1,53,1,1,10,10,0,0,0,136397445,0.04272,-0.00757,0.95874,0.95972,-0.00772,0.00292,-0.00034,0.00826,0.96219,0.00537,0.00826,3,21427,0,230,0.11474,0.08701,0.75832,98,1,91.042,68,1,3,14465,185610,0,0,0.000,10.381,16.072,0,0.000,12.900,29.709,0,0,1,0,7
PPG,1,3371,136390536,134,175017,196025,195885.797,139.203,28.891,0,0,0,0,62.50,62.50,2,1,16,98.00,0,1,53,1,1,11,11,0,0,0,136421786,0.04468,-0.00562,0.96436,0.96541,-0.00718,0.00398,-0.00221,0.00850,0.96541,0.00511,0.00850,2,12170,0,230,0.11474,0.08701,0.75832,98,1,91.042,68,1,3,2585,185610,0,0,0.000,10.381,16.072,0,0.000,12.900,29.709,0,0,1,0,7
PPG,1,3372,136430536,129,175051,196074,195887.672,186.328,27.672,0,0,0,0,62.50,62.50,2,1,16,98.00,0,1,53,1,1,12,12,0,0,0,136465982,0.04077,-0.00562,0.95386,0.95474,-0.00798,0.00238,0.00019,0.00833,0.95993,0.01029,0.00914,3,12112,0,230,0.11474,0.08701,0.75832,98,1,91.042,68,1,3,2598,185610,0,0,0.000,10.381,16.072,0,0.000,12.900,29.709,0,0,1,0,7
PPG,1,3373,136470536,151,175080,196145,195890.250,254.750,47.688,1,0,1,920,65.22,65.22,2,1,16,98.00,0,1,53,1,1,13,13,0,0,0,136507534,0.04541,-0.00513,0.95337,0.95446,-0.00825,0.00212,-0.00087,0.00856,0.95446,0.00153,0.00874,3,12106,0,230,0.11474,0.08701,0.75832,98,1,91.042,68,1,3,4297,185610,0,0,126.344,10.381,16.072,1,279.516,12.900,29.709,1,1,1,0,7
PPG,1,3374,136510536,130,175088,196154,195892.891,261.109,66.016,0,0,0,0,65.22,65.22,2,1,16,98.00,0,1,53,1,1,14,14,0,0,0,136546702,0.04077,-0.00732,0.96802,0.96890,-0.00798,0.00185,-0.00034,0.00820,0.96890,0.01388,0.00956,3,12148,0,230,0.11474,0.08701,0.75832,98,1,91.042,68,1,3,4306,185610,0,0,0.000,10.576,16.731,0,0.000,13.664,32.591,0,0,1,0,7
PPG,1,3375,136550536,129,175073,196167,195895.625,271.375,83.062,0,0,0,0,65.22,65.22,2,1,16,98.00,0,1,53,1,1,15,15,0,0,0,136585704,0.04028,-0.00513,0.95581,0.95667,-0.00745,0.00185,-0.00007,0.00768,0.96217,0.01190,0.00801,3,12127,0,230,0.11474,0.08701,0.75832,98,1,91.042,68,1,3,2606,185610,0,0,0.000,10.576,16.731,0,0.000,13.664,32.591,0,0,1,0,7
PPG,1,3376,136590536,129,175061,196168,195898.344,269.656,94.953,0,0,0,0,65.22,65.22,2,1,16,98.00,0,1,53,1,1,16,16,0,0,0,136627358,0.04590,-0.00806,0.95654,0.95768,-0.00852,0.00132,0.00046,0.00863,0.95857,0.00418,0.00863,3,12123,0,230,0.11474,0.08701,0.75832,98,1,91.042,68,1,3,4300,185610,0,0,0.000,10.576,16.731,0,0.000,13.664,32.591,0,0,1,0,7
PPG,1,3377,136630536,129,175048,196110,195900.453,209.547,96.625,0,0,0,0,65.22,65.22,2,1,16,98.00,0,1,53,1,1,17,17,0,0,0,136666370,0.03760,-0.01392,0.95142,0.95226,-0.00772,0.00292,-0.00061,0.00827,0.95981,0.00575,0.00952,3,12115,0,230,0.11474,0.08701,0.75832,98,1,91.042,68,1,3,2601,185610,0,0,0.000,10.576,16.731,0,0.000,13.664,32.591,0,0,1,0,7
PPG,1,3378,136670536,146,175027,196082,195902.266,179.734,95.625,0,0,0,0,65.22,65.22,2,1,16,98.00,0,1,53,1,1,18,18,0,0,0,136707938,0.04468,-0.00757,0.95459,0.95566,-0.00878,0.00292,-0.00034,0.00926,0.95566,0.01721,0.00926,3,12115,0,230,0.11474,0.08701,0.75832,98,1,91.042,68,1,3,4301,185610,0,0,0.000,10.576,16.731,0,0.000,13.664,32.591,0,0,1,0,7
PPG,1,3379,136710536,144,175003,196084,195904.078,179.922,91.203,0,0,0,0,65.22,65.22,2,1,16,98.00,0,1,53,1,1,19,19,0,0,0,136746985,0.04102,-0.00391,0.95654,0.95743,-0.00745,0.00265,-0.00167,0.00808,0.96363,0.00796,0.00827,3,12185,0,230,0.11474,0.08701,0.75832,98,1,91.042,68,1,3,4298,185610,0,0,0.000,10.576,16.731,0,0.000,13.664,32.591,0,0,1,0,7
PPG,1,3380,136750536,510,175011,196092,195905.953,186.047,79.016,0,0,0,0,65.22,65.22,2,1,16,nan,4,1,53,1,1,20,20,0,0,0,136785960,0.03955,-0.00586,0.96021,0.96104,-0.00772,0.00318,-0.00061,0.00837,0.96111,0.00368,0.00895,3,12106,0,230,0.11652,0.10615,0.91097,89,1,87.226,107,1,3,2595,185610,0,0,0.000,10.576,16.731,0,0.000,13.664,32.591,0,0,1,0,7
PPG,1,3381,136790536,186,175025,196110,195908.000,202.000,68.594,0,0,0,0,65.22,65.22,2,1,16,nan,4,1,53,2,2,22,22,0,0,0,136889411,0.03638,-0.00244,0.95630,0.95699,-0.00745,0.00265,-0.00114,0.00799,0.95936,0.00532,0.00962,4,61487,0,235,0.11652,0.10615,0.91097,89,1,87.226,107,1,3,61402,185610,0,0,0.000,10.576,16.731,0,0.000,13.664,32.591,0,0,1,0,7
PPG,1,3382,136830536,39,175019,196104,195909.953,194.047,53.188,0,0,0,0,65.22,65.22,2,1,16,nan,4,1,53,2,2,22,22,0,0,0,136889411,0.03638,-0.00244,0.95630,0.95699,-0.00745,0.00265,-0.00114,0.00799,0.00000,0.00000,0.00000,0,61487,0,235,0.11652,0.10615,0.91097,89,1,87.226,107,1,3,61402,185610,0,0,0.000,10.576,16.731,0,0.000,13.664,32.591,0,0,1,0,7
PPG,1,3383,136870536,132,175023,196127,195912.125,214.875,40.984,0,0,0,0,65.22,65.22,2,1,16,nan,4,1,53,1,1,23,23,0,0,0,136902978,0.04126,-0.00537,0.95923,0.96013,-0.00798,0.00238,-0.00141,0.00845,0.96013,0.00314,0.00845,1,13567,0,235,0.11652,0.10615,0.91097,89,1,87.226,107,1,3,10063,185610,0,0,0.000,10.576,16.731,0,0.000,13.664,32.591,0,0,1,0,7
PPG,1,3384,136910536,130,175015,196107,195914.078,192.922,36.156,0,0,0,0,65.22,65.22,2,1,16,nan,4,1,53,1,1,24,24,0,0,0,136947616,0.04297,-0.00415,0.95679,0.95776,-0.00772,0.00185,-0.00034,0.00794,0.95853,0.00173,0.00868,3,12153,0,236,0.11652,0.10615,0.91097,89,1,87.226,107,1,3,4321,185610,0,0,0.000,10.576,16.731,0,0.000,13.664,32.591,0,0,1,0,7
PPG,1,3385,136950536,129,175030,196130,195916.234,213.766,35.875,1,0,0,0,65.22,65.22,2,1,16,nan,4,1,53,1,1,25,25,0,0,0,136986642,0.04199,-0.00708,0.95288,0.95383,-0.00825,0.00265,-0.00007,0.00866,0.96166,0.00783,0.00866,3,12144,0,236,0.11652,0.10615,0.91097,89,1,87.226,107,1,3,2595,185610,0,0,0.000,10.576,16.731,0,68.953,13.664,32.591,1,0,1,0,7
PPG,1,3386,136990536,151,175031,196140,195918.469,221.531,31.625,0,0,1,500,66.67,66.67,2,1,16,nan,4,1,53,1,1,26,26,0,0,0,137028267,0.04028,-0.00952,0.95508,0.95597,-0.00878,0.00238,-0.00061,0.00912,0.96272,0.00889,0.00912,3,12138,0,236,0.11652,0.10615,0.91097,89,1,87.226,107,1,3,4295,185610,0,0,47.797,10.576,16.731,1,0.000,13.664,32.591,0,1,1,0,7
PPG,1,3387,137030536,129,175045,196183,195921.109,261.891,31.422,0,0,0,0,66.67,66.67,2,1,16,nan,4,1,53,1,1,27,27,0,0,0,137067317,0.04077,-0.00879,0.95435,0.95526,-0.00745,0.00292,-0.00087,0.00805,0.95526,0.00182,0.00885,3,12123,0,236,0.11652,0.10615,0.91097,89,1,87.226,107,1,3,4306,185610,0,0,0.000,10.256,15.649,0,0.000,13.016,30.145,0,0,1,0,7
PPG,1,3388,137070536,146,174985,196115,195923.047,191.953,23.875,0,0,0,0,66.67,66.67,2,1,16,nan,4,1,53,1,1,28,28,0,0,0,137106275,0.04272,-0.00928,0.95972,0.96071,-0.00718,0.00158,-0.00141,0.00749,0.96071,0.00529,0.00828,3,12116,0,236,0.11652,0.10615,0.91097,89,1,87.226,107,1,3,2598,185610,0,0,0.000,10.278,15.587,0,0.000,13.016,30.145,0,0,1,0,7
PPG,1,3389,137110536,206,174959,196056,195924.375,131.625,13.125,0,0,0,0,66.67,66.67,2,1,16,nan,4,1,53,1,1,29,29,0,0,0,137147849,0.04639,-0.00781,0.95679,0.95794,-0.00772,0.00265,-0.00114,0.00824,0.96273,0.00266,0.00854,3,12123,0,236,0.11652,0.10615,0.91097,89,1,87.226,107,1,3,4304,185610,0,0,0.000,10.278,15.587,0,0.000,13.016,30.145,0,0,1,0,7
PPG,1,3390,137150536,130,174952,196070,195925.828,144.172,2.266,0,0,0,0,66.67,66.67,2,1,16,nan,4,1,53,1,1,30,30,0,0,0,137187528,0.04028,-0.00732,0.95483,0.95571,-0.00718,0.00185,-0.00141,0.00755,0.96160,0.00366,0.00901,3,12284,0,236,0.11652,0.10615,0.91097,89,1,87.226,107,1,3,4298,185610,0,0,0.000,10.278,15.587,0,0.000,13.016,30.145,0,0,1,0,7
