type,session_id,sample_index,sample_time_us,processing_time_us,red_raw,ir_raw,ir_dc,ir_ac,ir_filtered,peak_custom,peak_sparkfun,peak_accepted,ibi_ms,bpm_instant,bpm_robust,hr_status,ppg_quality,ppg_quality_flags,spo2_result,spo2_status,spo2_quality,led_amplitude,sparkfun_check_count,sparkfun_available,hw_fifo_read_ptr,hw_fifo_write_ptr,hw_fifo_overflow,suspected_drops,missing_samples,mpu_time_us,ax_g,ay_g,az_g,acc_mag_g,gx_rad_s,gy_rad_s,gz_rad_s,gyro_mag_rad_s,mpu_window_peak_g,mpu_window_delta_g,mpu_window_gyro_rad_s,mpu_window_samples,mpu_dt_us,mpu_saturated,mpu_missed_deadlines,ppg_mod_ir_pct,ppg_mod_red_pct,ppg_ratio_r,spo2_maxim,spo2_maxim_valid,spo2_custom_candidate,maxim_hr,maxim_hr_valid,measurement_state,loop_last_us,loop_max_us,display_render_us,i2c_failures,red_prominence,red_threshold,red_snr,red_candidate,ir_prominence,ir_threshold,ir_snr,ir_candidate,peak_fused,detector_state,quarantine_remaining_ms,synchronized_count
PPG,2,19920,798350536,170,170756,188787,188313.734,473.266,51.188,1,0,0,0,0.00,nan,1,2,0,nan,4,1,53,1,1,16,16,0,0,0,798615458,0.04272,-0.00464,0.95313,0.95409,-0.00745,0.00158,-0.00141,0.00775,0.95992,0.00496,0.00827,3,12138,0,1325,0.15512,0.06914,0.44572,82,1,98.857,115,1,2,4397,185610,0,0,0.000,16.439,17.848,0,28.219,17.830,20.997,1,0,1,0,0
PPG,2,19921,798390536,118,170750,188813,188318.734,494.266,68.094,0,0,0,0,0.00,nan,1,2,0,nan,4,1,53,1,1,17,17,0,0,0,798654720,0.04004,-0.00464,0.95337,0.95422,-0.00692,0.00238,-0.00034,0.00732,0.95920,0.00498,0.00744,3,12254,0,1325,0.15512,0.06914,0.44572,82,1,98.857,115,1,2,2605,185610,0,0,0.000,16.439,17.848,0,0.000,17.830,20.997,0,0,1,0,0
PPG,2,19922,798430536,120,170771,188857,188324.109,532.891,75.859,0,0,0,0,0.00,nan,1,2,0,nan,4,1,53,1,1,18,18,0,0,0,798696487,0.04346,-0.00635,0.96045,0.96145,-0.00772,0.00158,0.00046,0.00789,0.96485,0.01063,0.00897,3,12350,0,1325,0.15512,0.06914,0.44572,82,1,98.857,115,1,2,4338,185610,0,0,0.000,16.439,17.848,0,0.000,17.830,20.997,0,0,1,0,0
PPG,2,19923,798470536,118,170734,188823,188329.094,493.906,78.750,0,0,0,0,0.00,nan,1,2,0,nan,4,1,53,1,1,19,19,0,0,0,798735745,0.04102,-0.00610,0.95093,0.95183,-0.00798,0.00158,-0.00087,0.00819,0.96116,0.00710,0.00819,3,12254,0,1325,0.15512,0.06914,0.44572,82,1,98.857,115,1,2,4328,185610,0,0,0.000,16.439,17.848,0,0.000,17.830,20.997,0,0,1,0,0
PPG,2,19924,798510536,128,170701,188816,188333.969,482.031,69.781,0,0,0,0,0.00,nan,1,2,0,nan,4,1,53,1,1,20,20,0,0,0,798775020,0.04102,-0.00391,0.95654,0.95743,-0.00612,0.00212,-0.00087,0.00653,0.96215,0.00807,0.00819,3,12257,0,1325,0.15512,0.06914,0.44572,82,1,98.857,115,1,2,2614,185610,0,0,0.000,16.439,17.848,0,0.000,17.830,20.997,0,0,1,0,0
PPG,2,19925,798550536,122,170707,188839,188339.016,499.984,60.031,0,0,0,0,0.00,nan,1,2,0,nan,4,1,53,1,1,21,21,0,0,0,798816872,0.04224,-0.00488,0.96338,0.96432,-0.00798,0.00185,-0.00194,0.00842,0.96432,0.00942,0.00859,3,12268,0,1325,0.15512,0.06914,0.44572,82,1,98.857,115,1,2,4334,185610,0,0,0.000,16.439,17.848,0,0.000,17.830,20.997,0,0,1,0,0
PPG,2,19926,798590536,119,170734,188884,188344.469,539.531,62.734,0,0,0,0,0.00,nan,1,2,0,nan,4,1,53,1,1,22,22,0,0,0,798856190,0.04053,-0.00366,0.95386,0.95473,-0.00798,0.00105,-0.00061,0.00807,0.96431,0.00651,0.00866,3,12270,0,1325,0.15512,0.06914,0.44572,82,1,98.857,115,1,2,4332,185610,0,0,0.000,16.439,17.848,0,0.000,17.830,20.997,0,0,1,0,0
PPG,2,19927,798630536,117,170733,188887,188349.891,537.109,68.531,0,0,0,0,0.00,nan,1,2,0,nan,4,1,53,1,1,23,23,0,0,0,798895466,0.04272,-0.00415,0.95825,0.95921,-0.00852,0.00185,-0.00087,0.00876,0.96468,0.00581,0.00876,3,12267,0,1325,0.15512,0.06914,0.44572,82,1,98.857,115,1,2,4336,185610,0,0,0.000,16.439,17.848,0,0.000,17.830,20.997,0,0,1,0,0
PPG,2,19928,798670536,120,170751,188913,188355.516,557.484,72.109,0,0,0,0,0.00,nan,1,2,0,nan,4,1,53,1,1,24,24,0,0,0,798934782,0.04053,-0.00269,0.95679,0.95765,-0.00745,0.00212,-0.00114,0.00783,0.95964,0.00448,0.00862,3,12261,0,1325,0.15512,0.06914,0.44572,82,1,98.857,115,1,2,2612,185610,0,0,0.000,16.439,17.848,0,0.000,17.830,20.997,0,0,1,0,0
PPG,2,19929,798710536,142,170756,188950,188361.453,588.547,73.438,0,0,0,0,0.00,nan,1,2,0,nan,4,1,53,1,1,25,25,0,0,0,798976649,0.04004,-0.00659,0.96484,0.96570,-0.00745,0.00185,-0.00061,0.00770,0.96570,0.01295,0.00859,3,12275,0,1325,0.15512,0.06914,0.44572,82,1,98.857,115,1,2,4334,185610,0,0,0.000,16.439,17.848,0,0.000,17.830,20.997,0,0,1,0,0
PPG,2,19930,798750536,148,170768,188972,188367.562,604.438,82.266,0,0,0,0,0.00,nan,1,2,0,nan,4,1,53,1,1,26,26,0,0,0,799016081,0.04248,-0.00195,0.95410,0.95505,-0.00718,0.00185,-0.00007,0.00742,0.95821,0.01515,0.00809,3,12271,0,1325,0.15512,0.06914,0.44572,82,1,98.857,115,1,2,4350,185610,0,0,0.000,16.439,17.848,0,0.000,17.830,20.997,0,0,1,0,0
PPG,2,19931,798790536,137,170738,188891,188372.797,518.203,86.547,1,0,1,0,0.00,nan,1,2,0,nan,4,1,53,1,1,27,27,0,0,0,799055446,0.04175,-0.00439,0.95386,0.95478,-0.00905,0.00212,-0.00114,0.00936,0.96113,0.00608,0.00936,3,12262,0,1325,0.15512,0.06914,0.44572,82,1,98.857,115,1,2,4328,185610,0,0,97.219,16.439,17.848,1,72.422,17.830,20.997,1,1,1,0,1
PPG,2,19932,798830536,129,170693,188779,188376.859,402.141,75.078,0,0,0,0,0.00,nan,1,2,0,nan,4,1,53,1,1,28,28,0,0,0,799098948,0.04321,-0.00464,0.95483,0.95582,-0.00798,0.00052,0.00099,0.00806,0.96967,0.01385,0.00812,3,12325,0,1325,0.15512,0.06914,0.44572,82,1,98.857,115,1,2,2641,185610,0,0,0.000,15.526,18.101,0,0.000,17.113,19.388,0,0,1,0,1
PPG,2,19933,798870536,120,170661,188716,188380.250,335.750,45.984,0,0,0,0,0.00,nan,1,2,0,nan,4,1,53,1,1,29,29,0,0,0,799135595,0.04614,-0.00513,0.95825,0.95938,-0.00852,0.00158,0.00046,0.00867,0.96418,0.00836,0.00867,3,12219,0,1325,0.15512,0.06914,0.44572,82,1,98.857,115,1,2,4335,185610,0,0,0.000,15.526,18.101,0,0.000,17.113,19.388,0,0,1,0,1
PPG,2,19934,798910536,120,170676,188787,188384.312,402.688,24.281,0,0,0,0,0.00,nan,1,2,0,nan,4,1,53,1,1,30,30,0,0,0,799174813,0.03979,-0.00562,0.95728,0.95812,-0.00718,0.00238,-0.00114,0.00765,0.96156,0.00463,0.00810,3,12233,0,1325,0.15512,0.06914,0.44572,82,1,98.857,115,1,2,2632,185610,0,0,0.000,15.526,18.101,0,0.000,17.113,19.388,0,0,1,0,1
PPG,2,19935,798950536,119,170723,188856,188389.031,466.969,9.641,0,0,0,0,0.00,nan,1,2,0,nan,4,1,53,1,1,31,31,0,0,0,799216827,0.03760,-0.00464,0.95532,0.95607,-0.00772,0.00452,-0.00141,0.00905,0.96392,0.00785,0.00905,3,12277,0,1325,0.15512,0.06914,0.44572,82,1,98.857,115,1,2,4341,185610,0,0,0.000,15.526,18.101,0,0.000,17.113,19.388,0,0,1,0,1
PPG,2,19936,798990536,127,170787,188949,188394.625,554.375,-0.703,0,0,0,0,0.00,nan,1,2,0,nan,4,1,53,1,1,0,0,0,0,0,799256027,0.04053,-0.00439,0.96021,0.96107,-0.00798,0.00105,-0.00007,0.00805,0.96410,0.00917,0.00863,3,12236,0,1325,0.15512,0.06914,0.44572,82,1,98.857,115,1,2,4325,185610,0,0,0.000,15.526,18.101,0,0.000,17.113,19.388,0,0,1,0,1
PPG,2,19937,799030536,131,170831,189025,188400.922,624.078,-2.969,0,0,0,0,0.00,nan,1,2,0,nan,4,1,53,1,1,1,1,0,0,0,799295231,0.03931,-0.00488,0.96021,0.96102,-0.00825,0.00292,-0.00247,0.00909,0.96102,0.00460,0.00909,3,12200,0,1325,0.15512,0.06914,0.44572,82,1,98.857,115,1,2,2672,185610,0,0,0.000,15.526,18.101,0,0.000,17.113,19.388,0,0,1,0,1
PPG,2,19938,799070536,122,170853,189049,188407.406,641.594,10.047,0,0,0,0,0.00,nan,1,2,0,nan,4,1,53,1,1,2,2,0,0,0,799337026,0.03833,-0.00513,0.95435,0.95513,-0.00825,0.00132,-0.00061,0.00838,0.96252,0.00504,0.00838,3,12162,0,1325,0.15512,0.06914,0.44572,82,1,98.857,115,1,2,4300,185610,0,0,0.000,15.526,18.101,0,0.000,17.113,19.388,0,0,1,0,1
PPG,2,19939,799110536,121,170870,189075,188414.078,660.922,39.016,1,0,0,0,0.00,nan,1,2,0,nan,4,1,53,1,1,3,3,0,0,0,799376061,0.04248,-0.00757,0.95801,0.95898,-0.00692,0.00158,-0.00114,0.00719,0.95898,0.00526,0.00777,3,12175,0,1325,0.15512,0.06914,0.44572,82,1,98.857,115,1,2,4343,185610,0,0,0.000,15.526,18.101,0,26.516,17.113,19.388,1,0,1,0,1
PPG,2,19940,799150536,119,170851,189087,188420.812,666.188,77.016,0,0,0,0,0.00,nan,1,2,0,nan,4,1,53,1,1,4,4,0,0,0,799415045,0.04004,-0.00293,0.95898,0.95982,-0.00878,0.00265,-0.00034,0.00918,0.95982,0.00276,0.00918,3,12156,0,1325,0.15512,0.06914,0.44572,82,1,98.857,115,1,2,2596,185610,0,0,0.000,15.526,18.101,0,0.000,17.113,19.388,0,0,1,0,1
PPG,2,19941,799190536,117,170858,189118,188427.781,690.219,109.062,0,0,0,0,0.00,nan,1,2,0,nan,4,1,53,1,1,5,5,0,0,0,799456638,0.04395,-0.00537,0.95630,0.95732,-0.00772,0.00185,0.00019,0.00794,0.95840,0.00289,0.00886,3,12129,0,1325,0.15512,0.06914,0.44572,82,1,98.857,115,1,2,4295,185610,0,0,0.000,15.526,18.101,0,0.000,17.113,19.388,0,0,1,0,1
PPG,2,19942,799230536,118,170861,189141,188434.906,706.094,135.578,0,0,0,0,0.00,nan,1,2,0,nan,4,1,53,1,1,6,6,0,0,0,799495716,0.04272,-0.00732,0.95947,0.96045,-0.00852,0.00212,-0.00141,0.00889,0.96045,0.00221,0.00889,3,12122,0,1325,0.15512,0.06914,0.44572,82,1,98.857,115,1,2,4298,185610,0,0,0.000,15.526,18.101,0,0.000,17.113,19.388,0,0,1,0,1
PPG,2,19943,799270536,118,170846,189138,188441.938,696.062,146.828,0,0,0,0,0.00,nan,1,2,0,nan,4,1,53,1,1,7,7,0,0,0,799534682,0.03857,-0.00464,0.96143,0.96221,-0.00798,0.00185,-0.00141,0.00831,0.96402,0.00566,0.00842,3,12119,0,1325,0.15512,0.06914,0.44572,82,1,98.857,115,1,2,2604,185610,0,0,0.000,15.526,18.101,0,0.000,17.113,19.388,0,0,1,0,1
PPG,2,19944,799310536,506,170839,189133,188448.844,684.156,146.406,0,0,0,0,0.00,nan,1,2,0,nan,4,1,53,1,1,8,8,0,0,0,799576283,0.04175,-0.00513,0.95703,0.95796,-0.00718,0.00238,-0.00007,0.00757,0.96069,0.00324,0.00889,3,12121,0,1325,0.12285,0.04905,0.39930,-999,0,100.017,100,1,2,4302,185610,0,0,0.000,15.526,18.101,0,0.000,17.113,19.388,0,0,1,0,1
PPG,2,19945,799350536,165,170833,189143,188455.781,687.219,144.625,0,0,0,0,0.00,nan,1,2,0,nan,4,1,53,1,1,9,9,0,0,0,799615657,0.04077,-0.00342,0.95850,0.95937,-0.00825,0.00158,-0.00114,0.00848,0.95937,0.00144,0.00894,3,12163,0,1325,0.12285,0.04905,0.39930,-999,0,100.017,100,1,2,4327,185610,0,0,0.000,15.526,18.101,0,0.000,17.113,19.388,0,0,1,0,1
PPG,2,19946,799390536,119,170852,189185,188463.078,721.922,145.297,0,0,0,0,0.00,nan,1,2,0,nan,4,1,53,1,1,10,10,0,0,0,799654623,0.04053,-0.00269,0.96118,0.96204,-0.00798,0.00185,-0.00034,0.00820,0.96204,0.00633,0.00882,3,12118,0,1325,0.12285,0.04905,0.39930,-999,0,100.017,100,1,2,2604,185610,0,0,0.000,15.526,18.101,0,0.000,17.113,19.388,0,0,1,0,1
PPG,2,19947,799430536,121,170878,189228,188470.734,757.266,148.391,0,0,0,0,0.00,nan,1,2,0,nan,4,1,53,1,1,11,11,0,0,0,799696142,0.04004,-0.00342,0.95068,0.95153,-0.00718,0.00345,-0.00087,0.00802,0.96014,0.00860,0.00847,3,12125,0,1325,0.12285,0.04905,0.39930,-999,0,100.017,100,1,2,4296,185610,0,0,0.000,15.526,18.101,0,0.000,17.113,19.388,0,0,1,0,1
PPG,2,19948,799470536,120,170927,189286,188478.891,807.109,153.734,0,0,0,0,0.00,nan,1,2,0,nan,4,1,53,1,1,12,12,0,0,0,799735079,0.04248,-0.00586,0.95630,0.95726,-0.00772,0.00132,-0.00194,0.00806,0.95726,0.00295,0.00872,3,12120,0,1325,0.12285,0.04905,0.39930,-999,0,100.017,100,1,2,2599,185610,0,0,0.000,15.526,18.101,0,0.000,17.113,19.388,0,0,1,0,1
PPG,2,19949,799510536,118,170920,189247,188486.578,760.422,154.031,0,0,0,0,0.00,nan,1,2,0,nan,4,1,53,1,1,13,13,0,0,0,799776626,0.04419,-0.00903,0.96191,0.96297,-0.00825,0.00105,-0.00061,0.00834,0.96297,0.00672,0.00862,3,12130,0,1325,0.12285,0.04905,0.39930,-999,0,100.017,100,1,2,4294,185610,0,0,0.000,15.526,18.101,0,0.000,17.113,19.388,0,0,1,0,1
PPG,2,19950,799550536,139,170855,189105,188492.766,612.234,142.672,0,0,0,0,0.00,nan,1,2,0,nan,4,1,53,1,1,14,14,0,0,0,799815562,0.03906,-0.00635,0.95679,0.95761,-0.00772,0.00292,-0.00114,0.00833,0.96379,0.00619,0.00833,3,12154,0,1325,0.12285,0.04905,0.39930,-999,0,100.017,100,1,2,2622,185610,0,0,0.000,15.022,19.326,0,0.000,17.345,18.871,0,0,1,0,1
PPG,2,19951,799590536,145,170818,189001,188497.844,503.156,118.312,1,0,1,800,75.00,75.00,2,1,0,nan,4,1,53,1,1,15,15,0,0,0,799857139,0.04248,-0.00903,0.95410,0.95509,-0.00852,0.00132,-0.00061,0.00864,0.96521,0.01012,0.00864,3,12132,0,1325,0.12285,0.04905,0.39930,-999,0,100.017,100,1,3,4296,185610,0,0,101.125,15.022,19.326,1,149.797,17.345,18.871,1,1,1,0,2
PPG,2,19952,799630536,123,170802,189022,188503.078,518.922,88.875,0,0,0,0,75.00,75.00,2,1,0,nan,4,1,53,1,1,16,16,0,0,0,799896221,0.03857,-0.00171,0.94849,0.94927,-0.00772,0.00212,-0.00061,0.00802,0.95977,0.00843,0.00807,3,12119,0,1325,0.12285,0.04905,0.39930,-999,0,100.017,100,1,3,4296,185610,0,0,0.000,14.707,18.523,0,0.000,17.201,18.556,0,0,1,0,2
PPG,2,19953,799670536,120,170783,189041,188508.453,532.547,52.062,0,0,0,0,75.00,75.00,2,1,0,nan,4,1,53,1,1,17,17,0,0,0,799935217,0.04150,-0.00537,0.95850,0.95941,-0.00718,0.00185,0.00019,0.00742,0.96145,0.01218,0.00859,3,12147,0,1325,0.12285,0.04905,0.39930,-999,0,100.017,100,1,3,2605,185610,0,0,0.000,14.707,18.523,0,0.000,17.201,18.556,0,0,1,0,2
PPG,2,19954,799710536,123,170784,189068,188514.047,553.953,15.156,0,0,0,0,75.00,75.00,2,1,0,nan,4,1,53,1,1,18,18,0,0,0,799976828,0.04199,-0.00342,0.96313,0.96406,-0.00798,0.00185,-0.00114,0.00827,0.96406,0.00768,0.00862,3,12116,0,1325,0.12285,0.04905,0.39930,-999,0,100.017,100,1,3,4302,185610,0,0,0.000,14.707,18.523,0,0.000,17.201,18.556,0,0,1,0,2
PPG,2,19955,799750536,120,170769,189086,188519.766,566.234,-24.922,0,0,0,0,75.00,75.00,2,1,0,nan,4,1,53,1,1,19,19,0,0,0,800015762,0.03931,-0.00342,0.95752,0.95833,-0.00745,0.00318,0.00126,0.00820,0.96093,0.00312,0.00838,3,12114,0,1325,0.12285,0.04905,0.39930,-999,0,100.017,100,1,3,4301,185610,0,0,0.000,14.707,18.523,0,0.000,17.201,18.556,0,0,1,0,2
PPG,2,19956,799790536,122,170781,189092,188525.484,566.516,-54.219,0,0,0,0,75.00,75.00,2,1,0,nan,4,1,53,1,1,20,20,0,0,0,800054731,0.04224,-0.00391,0.95850,0.95943,-0.00905,0.00212,0.00019,0.00929,0.96220,0.00625,0.00929,3,12115,0,1325,0.12285,0.04905,0.39930,-999,0,100.017,100,1,3,2603,185610,0,0,0.000,14.707,18.523,0,0.000,17.201,18.556,0,0,1,0,2
PPG,2,19957,799830536,125,170780,189095,188531.172,563.828,-59.141,0,0,0,0,75.00,75.00,2,1,0,nan,4,1,53,1,1,21,21,0,0,0,800100447,0.04126,-0.00757,0.95776,0.95868,-0.00905,0.00185,-0.00087,0.00928,0.95906,0.00221,0.00958,3,12161,0,1325,0.12285,0.04905,0.39930,-999,0,100.017,100,1,3,2590,185610,0,0,0.000,14.707,18.523,0,0.000,17.201,18.556,0,0,1,0,2
PPG,2,19958,799870536,125,170789,189113,188536.984,576.016,-46.344,0,0,0,0,75.00,75.00,2,1,0,nan,4,1,53,1,1,22,22,0,0,0,800136924,0.04224,-0.00610,0.95825,0.95920,-0.00825,0.00265,-0.00087,0.00871,0.96086,0.00218,0.00871,3,12168,0,1325,0.12285,0.04905,0.39930,-999,0,100.017,100,1,3,4296,185610,0,0,0.000,14.707,18.523,0,0.000,17.201,18.556,0,0,1,0,2
PPG,2,19959,799910536,122,170783,189139,188543.000,596.000,-32.828,0,0,0,0,75.00,75.00,2,1,0,nan,4,1,53,1,1,23,23,0,0,0,800175876,0.04102,-0.00586,0.95459,0.95549,-0.00825,0.00212,-0.00034,0.00852,0.96260,0.00538,0.00852,3,12119,0,1325,0.12285,0.04905,0.39930,-999,0,100.017,100,1,3,4301,185610,0,0,0.000,14.707,18.523,0,0.000,17.201,18.556,0,0,1,0,2
PPG,2,19960,799950536,145,170765,189151,188549.078,601.922,-20.312,0,0,0,0,75.00,75.00,2,1,0,nan,4,1,53,1,1,24,24,0,0,0,800214808,0.04150,-0.01099,0.96411,0.96507,-0.00825,0.00292,-0.00007,0.00875,0.96507,0.00748,0.00875,3,12123,0,1325,0.12285,0.04905,0.39930,-999,0,100.017,100,1,3,2595,185610,0,0,0.000,14.707,18.523,0,0.000,17.201,18.556,0,0,1,0,2
PPG,2,19961,799990536,123,170807,189203,188555.625,647.375,-5.266,0,0,0,0,75.00,75.00,2,1,0,nan,4,1,53,1,1,25,25,0,0,0,800256536,0.03662,-0.00562,0.96045,0.96116,-0.00798,0.00212,-0.00061,0.00828,0.96116,0.00664,0.00828,3,12111,0,1325,0.12285,0.04905,0.39930,-999,0,100.017,100,1,3,4297,185610,0,0,0.000,14.707,18.523,0,0.000,17.201,18.556,0,0,1,0,2
PPG,2,19962,800030536,141,170849,189253,188562.594,690.406,12.969,0,0,0,0,75.00,75.00,2,1,0,nan,4,1,53,1,1,26,26,0,0,0,800295493,0.04199,-0.00610,0.95483,0.95578,-0.00772,0.00158,-0.00061,0.00790,0.96227,0.00584,0.00812,3,12134,0,1325,0.12285,0.04905,0.39930,-999,0,100.017,100,1,3,2601,185610,0,0,0.000,14.707,18.523,0,0.000,17.201,18.556,0,0,1,0,2
PPG,2,19963,800070536,125,170874,189292,188569.891,722.109,33.844,0,0,0,0,75.00,75.00,2,1,0,nan,4,1,53,1,1,27,27,0,0,0,800337116,0.04028,-0.00220,0.95459,0.95544,-0.00692,0.00238,0.00046,0.00733,0.95808,0.00230,0.00812,3,12186,0,1325,0.12285,0.04905,0.39930,-999,0,100.017,100,1,3,4298,185610,0,0,0.000,14.707,18.523,0,0.000,17.201,18.556,0,0,1,0,2
PPG,2,19964,800110536,126,170847,189296,188577.156,718.844,54.422,0,0,0,0,75.00,75.00,2,1,0,nan,4,1,53,1,1,28,28,0,0,0,800376064,0.03857,-0.00513,0.95728,0.95807,-0.00852,0.00158,0.00073,0.00869,0.96334,0.00527,0.00869,3,12128,0,1325,0.12285,0.04905,0.39930,-999,0,100.017,100,1,3,4307,185610,0,0,0.000,14.707,18.523,0,0.000,17.201,18.556,0,0,1,0,2
PPG,2,19965,800150536,121,170860,189298,188584.359,713.641,73.094,0,0,0,0,75.00,75.00,2,1,0,nan,4,1,53,1,1,29,29,0,0,0,800414999,0.03955,-0.00708,0.95850,0.95934,-0.00852,0.00158,-0.00141,0.00878,0.96066,0.00365,0.00898,3,12118,0,1325,0.12285,0.04905,0.39930,-999,0,100.017,100,1,3,2598,185610,0,0,0.000,14.707,18.523,0,0.000,17.201,18.556,0,0,1,0,2
PPG,2,19966,800190536,123,170846,189308,188591.594,716.406,91.078,0,0,0,0,75.00,75.00,2,1,0,nan,4,1,53,1,1,30,30,0,0,0,800456875,0.04297,-0.00708,0.95386,0.95485,-0.00798,0.00158,-0.00141,0.00826,0.95910,0.00384,0.00888,3,12292,0,1325,0.12285,0.04905,0.39930,-999,0,100.017,100,1,3,4390,185610,0,0,0.000,14.707,18.523,0,0.000,17.201,18.556,0,0,1,0,2
PPG,2,19967,800230536,122,170846,189315,188598.828,716.172,110.172,0,0,0,0,75.00,75.00,2,1,0,nan,4,1,53,1,1,31,31,0,0,0,800495932,0.04492,-0.00488,0.95679,0.95785,-0.00798,0.00185,-0.00061,0.00822,0.95935,0.00513,0.00927,3,12157,0,1325,0.12285,0.04905,0.39930,-999,0,100.017,100,1,3,4302,185610,0,0,0.000,14.707,18.523,0,0.000,17.201,18.556,0,0,1,0,2
PPG,2,19968,800270536,122,170807,189200,188604.844,595.156,114.031,0,0,0,0,75.00,75.00,2,1,0,nan,4,1,53,1,1,0,0,0,0,0,800534878,0.04346,-0.00830,0.95630,0.95732,-0.00692,0.00238,-0.00221,0.00764,0.95732,0.00427,0.00848,3,12139,0,1325,0.12285,0.04905,0.39930,-999,0,100.017,100,1,3,2613,185610,0,0,0.000,14.707,18.523,0,0.000,17.201,18.556,0,0,1,0,2
PPG,2,19969,800310536,514,170745,189060,188609.391,450.609,95.812,0,0,0,0,75.00,75.00,2,1,0,nan,4,1,53,1,1,1,1,0,0,0,800576534,0.04126,-0.00806,0.95850,0.95942,-0.00745,0.00212,-0.00141,0.00787,0.96170,0.00570,0.00787,3,12104,0,1325,0.15334,0.04603,0.30018,86,1,nan,125,1,3,4297,185610,0,0,0.000,14.707,18.523,0,0.000,17.201,18.556,0,0,1,0,2
PPG,2,19970,800350536,178,170740,189049,188613.781,435.219,63.906,0,0,0,0,75.00,75.00,2,1,0,nan,4,1,53,1,1,2,2,0,0,0,800616067,0.04468,-0.00659,0.95264,0.95371,-0.00798,0.00238,-0.00141,0.00845,0.95805,0.00239,0.00848,3,12124,0,1325,0.15334,0.04603,0.30018,86,1,nan,125,1,3,4299,185610,0,0,0.000,14.707,18.523,0,0.000,17.201,18.556,0,0,1,0,2
PPG,2,19971,800390536,128,170766,189086,188618.500,467.500,29.656,0,0,0,0,75.00,75.00,2,1,0,nan,4,1,53,1,1,3,3,0,0,0,800655323,0.04126,-0.00562,0.95410,0.95501,-0.00798,0.00212,-0.00034,0.00827,0.95692,0.00383,0.00859,3,12356,0,1325,0.15334,0.04603,0.30018,86,1,nan,125,1,3,2613,185610,0,0,0.000,14.707,18.523,0,0.000,17.201,18.556,0,0,1,0,2
PPG,2,19972,800430536,130,170762,189140,188623.719,516.281,1.172,0,0,0,0,75.00,75.00,2,1,0,nan,4,1,53,1,1,4,4,0,0,0,800697237,0.04126,-0.00464,0.95386,0.95476,-0.00745,0.00185,-0.00034,0.00768,0.95809,0.00553,0.00838,3,12261,0,1325,0.15334,0.04603,0.30018,86,1,nan,125,1,3,4362,185610,0,0,0.000,14.707,18.523,0,0.000,17.201,18.556,0,0,1,0,2
PPG,2,19973,800470536,128,170810,189221,188629.688,591.312,-20.250,0,0,0,0,75.00,75.00,2,1,0,nan,4,1,53,1,1,5,5,0,0,0,800736636,0.04346,-0.00269,0.95483,0.95583,-0.00718,0.00212,-0.00087,0.00754,0.96015,0.00539,0.00854,3,12248,0,1325,0.15334,0.04603,0.30018,86,1,nan,125,1,3,4322,185610,0,0,0.000,14.707,18.523,0,0.000,17.201,18.556,0,0,1,0,2
PPG,2,19974,800510536,129,170857,189298,188636.375,661.625,-34.172,0,0,0,0,75.00,75.00,2,1,0,nan,4,1,53,1,1,6,6,0,0,0,800775977,0.03809,-0.00537,0.95923,0.96000,-0.00878,0.00212,-0.00007,0.00903,0.96222,0.00439,0.00903,3,12240,0,1325,0.15334,0.04603,0.30018,86,1,nan,125,1,3,4339,185610,0,0,0.000,14.707,18.523,0,0.000,17.201,18.556,0,0,1,0,2
PPG,2,19975,800550536,119,170862,189270,188642.719,627.281,-33.375,0,0,0,0,75.00,75.00,2,1,0,nan,4,1,53,1,1,7,7,0,0,0,800815249,0.04346,-0.00659,0.95630,0.95731,-0.00852,0.00158,-0.00034,0.00867,0.96217,0.01182,0.00937,3,12253,0,1325,0.15334,0.04603,0.30018,86,1,nan,125,1,3,2610,185610,0,0,0.000,14.707,18.523,0,0.000,17.201,18.556,0,0,1,0,2
PPG,2,19976,800590536,145,170838,189249,188648.781,600.219,-14.219,1,0,1,1000,60.00,60.00,2,1,512,nan,4,1,53,1,1,8,8,0,0,0,800857135,0.03979,-0.00513,0.95752,0.95836,-0.00825,0.00265,-0.00114,0.00874,0.95836,0.00313,0.00874,3,12267,0,1325,0.15334,0.04603,0.30018,86,1,nan,125,1,3,4343,185610,0,0,79.547,14.707,18.523,1,173.172,17.201,18.556,1,1,1,0,3
PPG,2,19977,800630536,120,170842,189291,188655.203,635.797,10.547,0,0,0,0,60.00,60.00,2,1,512,nan,4,1,53,1,1,9,9,0,0,0,800896471,0.04053,-0.00854,0.95557,0.95646,-0.00798,0.00185,-0.00167,0.00836,0.96333,0.00497,0.00859,3,12234,0,1325,0.15334,0.04603,0.30018,86,1,nan,125,1,3,4313,185610,0,0,0.000,14.297,17.476,0,0.000,17.221,18.600,0,0,1,0,3
PPG,2,19978,800670536,123,170849,189345,188662.094,682.906,35.938,0,0,0,0,60.00,60.00,2,1,512,nan,4,1,53,1,1,10,10,0,0,0,800935706,0.03857,-0.00586,0.96265,0.96344,-0.00745,0.00212,-0.00061,0.00777,0.96344,0.00675,0.00812,3,12252,0,1325,0.15334,0.04603,0.30018,86,1,nan,125,1,3,2651,185610,0,0,0.000,14.297,17.476,0,0.000,17.221,18.600,0,0,1,0,3
PPG,2,19979,800710536,123,170853,189362,188669.094,692.906,56.516,0,0,0,0,60.00,60.00,2,1,512,nan,4,1,53,1,1,11,11,0,0,0,800977712,0.04297,-0.00342,0.95728,0.95825,-0.00665,0.00132,-0.00034,0.00679,0.95964,0.00428,0.00804,3,12261,0,1325,0.15334,0.04603,0.30018,86,1,nan,125,1,3,4315,185610,0,0,0.000,14.297,17.476,0,0.000,17.221,18.600,0,0,1,0,3
PPG,2,19980,800750536,129,170893,189413,188676.531,736.469,70.828,0,0,0,0,60.00,60.00,2,1,512,nan,4,1,53,1,1,12,12,0,0,0,801016930,0.04150,-0.00586,0.96289,0.96380,-0.00798,0.00318,-0.00061,0.00862,0.96568,0.01101,0.00928,3,12252,0,1325,0.15334,0.04603,0.30018,86,1,nan,125,1,3,4333,185610,0,0,0.000,14.297,17.476,0,0.000,17.221,18.600,0,0,1,0,3
PPG,2,19981,800790536,123,170892,189428,188684.047,743.953,78.156,0,0,0,0,60.00,60.00,2,1,512,nan,4,1,53,1,1,13,13,0,0,0,801056189,0.04102,-0.00830,0.95532,0.95624,-0.00798,0.00238,-0.00034,0.00834,0.95909,0.00471,0.00908,3,12262,0,1325,0.15334,0.04603,0.30018,86,1,nan,125,1,3,4325,185610,0,0,0.000,14.297,17.476,0,0.000,17.221,18.600,0,0,1,0,3
PPG,2,19982,800830536,128,170905,189463,188691.844,771.156,95.219,0,0,0,0,60.00,60.00,2,1,512,nan,4,1,53,1,1,14,14,0,0,0,801102268,0.03809,-0.00684,0.95605,0.95684,-0.00745,0.00185,-0.00034,0.00768,0.96088,0.00465,0.00838,3,12291,0,1325,0.15334,0.04603,0.30018,86,1,nan,125,1,3,2621,185610,0,0,0.000,14.297,17.476,0,0.000,17.221,18.600,0,0,1,0,3
PPG,2,19983,800870536,124,170902,189479,188699.719,779.281,118.734,0,0,0,0,60.00,60.00,2,1,512,nan,4,1,53,1,1,15,15,0,0,0,801138941,0.04248,-0.00195,0.96045,0.96139,-0.00798,0.00238,-0.00087,0.00838,0.96139,0.00671,0.00912,3,12262,0,1325,0.15334,0.04603,0.30018,86,1,nan,125,1,3,2622,185610,0,0,0.000,14.297,17.476,0,0.000,17.221,18.600,0,0,1,0,3
PPG,2,19984,800910536,125,170891,189470,188707.422,762.578,135.609,0,0,0,0,60.00,60.00,2,1,512,nan,4,1,53,1,1,16,16,0,0,0,801175605,0.04321,-0.00562,0.95483,0.95583,-0.00718,0.00318,-0.00061,0.00788,0.96351,0.00592,0.00882,3,12241,0,1325,0.15334,0.04603,0.30018,86,1,nan,125,1,3,2626,185610,0,0,0.000,14.297,17.476,0,0.000,17.221,18.600,0,0,1,0,3
PPG,2,19985,800950536,123,170901,189505,188715.391,789.609,148.125,0,0,0,0,60.00,60.00,2,1,512,nan,4,1,53,1,1,17,17,0,0,0,801217433,0.04004,-0.00269,0.95947,0.96031,-0.00718,0.00212,-0.00007,0.00749,0.96079,0.00496,0.00749,3,12234,0,1325,0.15334,0.04603,0.30018,86,1,nan,125,1,3,4332,185610,0,0,0.000,14.297,17.476,0,0.000,17.221,18.600,0,0,1,0,3
PPG,2,19986,800990536,125,170901,189523,188723.469,799.531,160.375,0,0,0,0,60.00,60.00,2,1,512,nan,4,1,53,1,1,18,18,0,0,0,801256684,0.04370,-0.00415,0.95679,0.95779,-0.00745,0.00185,-0.00087,0.00773,0.96080,0.00472,0.00793,3,12257,0,1325,0.15334,0.04603,0.30018,86,1,nan,125,1,3,4376,185610,0,0,0.000,14.297,17.476,0,0.000,17.221,18.600,0,0,1,0,3
PPG,2,19987,801030536,203,170892,189451,188730.750,720.250,158.984,0,0,0,0,60.00,60.00,2,1,512,nan,4,1,53,1,1,19,19,0,0,0,801295730,0.03931,-0.00391,0.95850,0.95931,-0.00692,0.00158,0.00073,0.00713,0.95931,0.00174,0.00795,3,12133,0,1325,0.15334,0.04603,0.30018,86,1,nan,125,1,3,2649,185610,0,0,0.000,14.297,17.476,0,0.000,17.221,18.600,0,0,1,0,3
PPG,2,19988,801070536,125,170833,189297,188736.406,560.594,135.422,0,0,0,0,60.00,60.00,2,1,512,nan,4,1,53,1,1,20,20,0,0,0,801337664,0.04077,-0.00415,0.95557,0.95644,-0.00772,0.00132,-0.00087,0.00788,0.96371,0.00440,0.00812,3,12124,0,1325,0.15334,0.04603,0.30018,86,1,nan,125,1,3,4323,185610,0,0,0.000,14.297,17.476,0,0.000,17.221,18.600,0,0,1,0,3
PPG,2,19989,801110536,123,170866,189318,188742.219,575.781,101.812,0,0,0,0,60.00,60.00,2,1,512,nan,4,1,53,1,1,21,21,0,0,0,801376636,0.03931,-0.00537,0.95313,0.95395,-0.00878,0.00212,-0.00194,0.00924,0.95971,0.00720,0.00928,3,12121,0,1325,0.15334,0.04603,0.30018,86,1,nan,125,1,3,4295,185610,0,0,0.000,14.297,17.476,0,0.000,17.221,18.600,0,0,1,0,3
PPG,2,19990,801150536,125,170880,189368,188748.469,619.531,70.016,0,0,0,0,60.00,60.00,2,1,512,nan,4,1,53,1,1,22,22,0,0,0,801415619,0.04199,-0.00708,0.95923,0.96017,-0.00718,0.00132,-0.00194,0.00756,0.96531,0.01136,0.00788,3,12118,0,1325,0.15334,0.04603,0.30018,86,1,nan,125,1,3,2597,185610,0,0,0.000,14.297,17.476,0,0.000,17.221,18.600,0,0,1,0,3
PPG,2,19991,801190536,123,170895,189433,188755.312,677.688,47.375,0,0,0,0,60.00,60.00,2,1,512,nan,4,1,53,1,1,23,23,0,0,0,801457182,0.04346,-0.00293,0.95386,0.95485,-0.00772,0.00185,-0.00167,0.00811,0.96114,0.00629,0.00831,3,12150,0,1325,0.15334,0.04603,0.30018,86,1,nan,125,1,3,4320,185610,0,0,0.000,14.297,17.476,0,0.000,17.221,18.600,0,0,1,0,3
PPG,2,19992,801230536,125,170924,189497,188762.734,734.266,28.375,0,0,0,0,60.00,60.00,2,1,512,nan,4,1,53,1,1,24,24,0,0,0,801496209,0.03955,-0.00488,0.95776,0.95859,-0.00772,0.00158,-0.00087,0.00793,0.96095,0.00611,0.00818,3,12126,0,1325,0.15334,0.04603,0.30018,86,1,nan,125,1,3,2611,185610,0,0,0.000,14.297,17.476,0,0.000,17.221,18.600,0,0,1,0,3
PPG,2,19993,801270536,124,170960,189563,188770.734,792.266,16.984,0,0,0,0,60.00,60.00,2,1,512,nan,4,1,53,1,1,25,25,0,0,0,801537768,0.03931,-0.00415,0.95898,0.95980,-0.00798,0.00105,-0.00007,0.00805,0.96334,0.00475,0.00814,3,12124,0,1325,0.15334,0.04603,0.30018,86,1,nan,125,1,3,4294,185610,0,0,0.000,14.297,17.476,0,0.000,17.221,18.600,0,0,1,0,3
PPG,2,19994,801310536,529,170972,189564,188778.672,785.328,19.828,1,0,1,720,75.00,75.00,2,1,512,nan,4,1,53,1,1,26,26,0,0,0,801576733,0.03979,-0.00415,0.95313,0.95396,-0.00798,0.00185,-0.00034,0.00820,0.95941,0.00329,0.00820,3,12129,0,1325,0.14285,0.04326,0.30282,-999,0,nan,150,1,3,4300,185610,0,0,75.062,14.297,17.476,1,194.547,17.221,18.600,1,1,1,0,4
PPG,2,19995,801350536,173,170920,189478,188785.672,692.328,35.297,0,0,0,0,75.00,75.00,2,1,512,nan,4,1,53,1,1,27,27,0,0,0,801616208,0.04053,-0.00781,0.96289,0.96377,-0.00798,0.00292,-0.00061,0.00852,0.96377,0.00687,0.00852,3,12125,0,1325,0.14285,0.04326,0.30282,-999,0,nan,150,1,3,2611,185610,0,0,0.000,13.909,16.489,0,0.000,17.372,18.930,0,0,1,0,4
PPG,2,19996,801390536,216,170875,189465,188792.469,672.531,45.484,0,0,0,0,75.00,75.00,2,1,512,nan,4,1,53,1,1,28,28,0,0,0,801657844,0.04224,-0.00415,0.95801,0.95895,-0.00772,0.00265,-0.00034,0.00817,0.96395,0.00545,0.00817,3,12120,0,1325,0.14285,0.04326,0.30282,-999,0,nan,150,1,3,4307,185610,0,0,0.000,13.909,16.489,0,0.000,17.372,18.930,0,0,1,0,4
PPG,2,19997,801430536,124,170890,189508,188799.625,708.375,54.641,0,0,0,0,75.00,75.00,2,1,512,nan,4,1,53,1,1,29,29,0,0,0,801696960,0.04346,-0.00977,0.95605,0.95709,-0.00852,0.00238,-0.00194,0.00905,0.96318,0.00527,0.00905,3,12135,0,1325,0.14285,0.04326,0.30282,-999,0,nan,150,1,3,4305,185610,0,0,0.000,13.909,16.489,0,0.000,17.372,18.930,0,0,1,0,4
PPG,2,19998,801470536,125,170871,189515,188806.781,708.219,57.859,0,0,0,0,75.00,75.00,2,1,512,nan,4,1,53,1,1,30,30,0,0,0,801735897,0.03979,-0.00513,0.96191,0.96275,-0.00878,0.00238,-0.00194,0.00930,0.96533,0.00483,0.00930,3,12136,0,1325,0.14285,0.04326,0.30282,-999,0,nan,150,1,3,2595,185610,0,0,0.000,13.909,16.489,0,0.000,17.372,18.930,0,0,1,0,4
PPG,2,19999,801510536,131,170847,189524,188813.953,710.047,53.625,0,0,0,0,75.00,75.00,2,1,512,nan,4,1,53,1,1,31,31,0,0,0,801777501,0.04175,-0.00293,0.95435,0.95526,-0.00718,0.00185,-0.00114,0.00750,0.95948,0.00327,0.00801,3,12166,0,1325,0.14285,0.04326,0.30282,-999,0,nan,150,1,3,4295,185610,0,0,0.000,13.909,16.489,0,0.000,17.372,18.930,0,0,1,0,4
PPG,2,20000,801550536,125,170895,189598,188821.797,776.203,49.375,0,0,0,0,75.00,75.00,2,1,512,nan,4,1,53,1,1,0,0,0,0,0,801816463,0.04126,-0.00415,0.95557,0.95647,-0.00772,0.00212,-0.00034,0.00801,0.96282,0.00636,0.00878,3,12139,0,1325,0.14285,0.04326,0.30282,-999,0,nan,150,1,3,4295,185610,0,0,0.000,13.909,16.489,0,0.000,17.372,18.930,0,0,1,0,4
PPG,2,20001,801590536,128,171005,189725,188830.828,894.172,57.516,0,0,0,0,75.00,75.00,2,1,512,nan,4,1,53,1,1,1,1,0,0,0,801855415,0.04175,-0.00562,0.95801,0.95893,-0.00718,0.00265,0.00046,0.00767,0.95995,0.00497,0.00794,3,12137,0,1325,0.14285,0.04326,0.30282,-999,0,nan,150,1,3,2595,185610,0,0,0.000,13.909,16.489,0,0.000,17.372,18.930,0,0,1,0,4
PPG,2,20002,801630536,125,171025,189762,188840.141,921.859,83.125,0,0,0,0,75.00,75.00,2,1,512,nan,4,1,53,1,1,2,2,0,0,0,801897358,0.04126,-0.00757,0.96216,0.96307,-0.00692,0.00132,-0.00167,0.00724,0.96307,0.00362,0.00814,3,12246,0,1325,0.14285,0.04326,0.30282,-999,0,nan,150,1,3,4301,185610,0,0,0.000,13.909,16.489,0,0.000,17.372,18.930,0,0,1,0,4
PPG,2,20003,801670536,125,171019,189751,188849.250,901.750,110.391,0,0,0,0,75.00,75.00,2,1,512,nan,4,1,53,1,1,3,3,0,0,0,801936354,0.03784,-0.00635,0.96167,0.96244,-0.00772,0.00265,-0.00007,0.00816,0.96459,0.00649,0.00816,3,12210,0,1325,0.14285,0.04326,0.30282,-999,0,nan,150,1,3,2598,185610,0,0,16.141,13.909,16.489,1,0.000,17.372,18.930,0,0,1,0,4
PPG,2,20004,801710536,183,171047,189785,188858.609,926.391,134.219,0,0,0,0,75.00,75.00,2,1,512,nan,4,1,53,1,1,4,4,0,0,0,801977917,0.04297,-0.00439,0.95459,0.95557,-0.00852,0.00238,-0.00167,0.00900,0.96603,0.01047,0.00913,3,12131,0,1325,0.14285,0.04326,0.30282,-999,0,nan,150,1,3,4341,185610,0,0,0.000,13.909,16.489,0,0.000,17.372,18.930,0,0,1,0,4
PPG,2,20005,801750536,124,171069,189842,188868.438,973.562,164.078,0,0,0,0,75.00,75.00,2,1,512,nan,4,1,53,1,1,5,5,0,0,0,802016936,0.04077,-0.00952,0.95605,0.95697,-0.00878,0.00212,0.00046,0.00905,0.95714,0.00101,0.00905,3,12109,0,1325,0.14285,0.04326,0.30282,-999,0,nan,150,1,3,4297,185610,0,0,0.000,13.909,16.489,0,0.000,17.372,18.930,0,0,1,0,4
PPG,2,20006,801790536,146,171060,189849,188878.250,970.750,194.203,1,0,1,420,75.00,75.00,2,1,512,nan,4,1,53,1,1,6,6,0,0,0,802055921,0.03809,-0.00610,0.95630,0.95708,-0.00798,0.00158,-0.00087,0.00819,0.96163,0.00455,0.00899,3,12118,0,1325,0.14285,0.04326,0.30282,-999,0,nan,150,1,3,2595,185610,0,0,0.000,13.909,16.489,0,40.875,17.372,18.930,1,1,1,0,5
PPG,2,20007,801830536,136,171031,189743,188886.891,856.109,200.328,0,0,0,0,75.00,75.00,2,1,512,nan,4,1,53,2,2,8,8,0,0,0,802153303,0.04150,-0.00806,0.96021,0.96114,-0.00772,0.00158,-0.00007,0.00788,0.96114,0.00278,0.00795,3,61180,0,1330,0.14285,0.04326,0.30282,-999,0,nan,150,1,3,61142,185610,0,0,0.000,13.203,14.685,0,0.000,16.543,17.121,0,0,1,0,5
PPG,2,20008,801870536,48,170962,189581,188893.828,687.172,165.547,0,0,0,0,75.00,75.00,2,1,512,nan,4,1,53,2,2,8,8,0,0,0,802153303,0.04150,-0.00806,0.96021,0.96114,-0.00772,0.00158,-0.00007,0.00788,0.00000,0.00000,0.00000,0,61180,0,1330,0.14285,0.04326,0.30282,-999,0,nan,150,1,3,61142,185610,0,0,0.000,13.203,14.685,0,0.000,16.543,17.121,0,0,1,0,5
PPG,2,20009,801910536,128,170970,189624,188901.125,722.875,130.531,0,0,0,0,75.00,75.00,2,1,512,nan,4,1,53,1,1,9,9,0,0,0,802179291,0.03979,-0.00415,0.95825,0.95909,-0.00665,0.00185,-0.00167,0.00710,0.96087,0.00178,0.00809,2,12592,0,1330,0.14285,0.04326,0.30282,-999,0,nan,150,1,3,2633,185610,0,0,0.000,13.203,14.685,0,0.000,16.543,17.121,0,0,1,0,5
PPG,2,20010,801950536,164,170994,189716,188909.281,806.719,108.125,0,0,0,0,75.00,75.00,2,1,512,nan,4,1,53,1,1,10,10,0,0,0,802215792,0.04492,-0.00586,0.95630,0.95737,-0.00772,0.00238,-0.00034,0.00808,0.95903,0.00273,0.00808,3,12113,0,1330,0.14285,0.04326,0.30282,-999,0,nan,150,1,3,2595,185610,0,0,0.000,13.203,14.685,0,0.000,16.543,17.121,0,0,1,0,5
PPG,2,20011,801990536,174,170994,189720,188917.391,802.609,84.500,0,0,0,0,75.00,75.00,2,1,512,nan,4,1,53,1,1,11,11,0,0,0,802257546,0.03735,-0.00732,0.96680,0.96755,-0.00798,0.00158,-0.00114,0.00822,0.96755,0.01548,0.00866,3,12115,0,1330,0.14285,0.04326,0.30282,-999,0,nan,150,1,3,4335,185610,0,0,0.000,13.203,14.685,0,0.000,16.543,17.121,0,0,1,0,5
PPG,2,20012,802030536,133,171029,189786,188926.078,859.922,62.047,0,0,0,0,75.00,75.00,2,1,512,nan,4,1,53,1,1,12,12,0,0,0,802297072,0.04272,-0.01123,0.95679,0.95781,-0.00798,0.00052,-0.00034,0.00801,0.96295,0.00503,0.00831,3,12250,0,1330,0.14285,0.04326,0.30282,-999,0,nan,150,1,3,4349,185610,0,0,0.000,13.203,14.685,0,0.000,16.543,17.121,0,0,1,0,5
PPG,2,20013,802070536,133,171036,189799,188934.812,864.188,43.109,0,0,0,0,75.00,75.00,2,1,512,nan,4,1,53,1,1,13,13,0,0,0,802336406,0.03906,-0.00537,0.95508,0.95589,-0.00798,0.00212,0.00126,0.00835,0.96063,0.00294,0.00835,3,12298,0,1330,0.14285,0.04326,0.30282,-999,0,nan,150,1,3,2628,185610,0,0,0.000,13.203,14.685,0,0.000,16.543,17.121,0,0,1,0,5
PPG,2,20014,802110536,126,171034,189813,188943.594,869.406,40.656,0,0,0,0,75.00,75.00,2,1,512,nan,4,1,53,1,1,14,14,0,0,0,802378407,0.04126,-0.00586,0.96216,0.96306,-0.00692,0.00185,-0.00087,0.00721,0.96559,0.00970,0.00806,3,12261,0,1330,0.14285,0.04326,0.30282,-999,0,nan,150,1,3,4359,185610,0,0,0.000,13.203,14.685,0,0.000,16.543,17.121,0,0,1,0,5
PPG,2,20015,802150536,149,171029,189815,188952.312,862.688,57.234,1,0,1,420,83.33,83.33,2,1,0,nan,4,1,53,1,1,15,15,0,0,0,802417728,0.04517,-0.00830,0.95630,0.95740,-0.00718,0.00292,-0.00114,0.00784,0.96425,0.00548,0.00795,3,12236,0,1330,0.14285,0.04326,0.30282,-999,0,nan,150,1,3,4335,185610,0,0,93.203,13.203,14.685,1,150.953,16.543,17.121,1,1,1,0,6
PPG,2,20016,802190536,125,171022,189842,188961.203,880.797,69.516,0,0,0,0,83.33,83.33,2,1,0,nan,4,1,53,1,1,16,16,0,0,0,802457130,0.03711,-0.00708,0.95801,0.95875,-0.00692,0.00292,-0.00061,0.00753,0.96295,0.00762,0.00757,3,12256,0,1330,0.14285,0.04326,0.30282,-999,0,nan,150,1,3,4332,185610,0,0,0.000,13.066,14.336,0,0.000,16.507,17.041,0,0,1,0,6
PPG,2,20017,802230536,133,171000,189829,188969.875,859.125,69.625,0,0,0,0,83.33,83.33,2,1,0,nan,4,1,53,1,1,17,17,0,0,0,802496460,0.04175,-0.00195,0.95605,0.95697,-0.00825,0.00158,-0.00167,0.00856,0.96063,0.00366,0.00856,3,12259,0,1330,0.14285,0.04326,0.30282,-999,0,nan,150,1,3,2636,185610,0,0,0.000,12.762,14.945,0,0.000,16.507,17.041,0,0,1,0,6
PPG,2,20018,802270536,145,170992,189837,188978.547,858.453,70.234,0,0,0,0,83.33,83.33,2,1,0,nan,4,1,53,1,1,18,18,0,0,0,802538342,0.04150,-0.00562,0.96094,0.96185,-0.00772,0.00265,-0.00114,0.00824,0.96185,0.00394,0.00824,3,12205,0,1330,0.14285,0.04326,0.30282,-999,0,nan,150,1,3,4343,185610,0,0,0.000,12.762,14.945,0,0.000,16.507,17.041,0,0,1,0,6
PPG,2,20019,802310536,546,170999,189861,188987.375,873.625,64.094,0,0,0,0,83.33,83.33,2,1,0,nan,4,1,53,1,1,19,19,0,0,0,802577697,0.04346,-0.00537,0.96021,0.96120,-0.00852,0.00185,-0.00007,0.00871,0.96120,0.00565,0.00871,3,12249,0,1330,0.16439,0.05707,0.34715,99,1,nan,83,1,3,4346,185610,0,0,0.000,12.762,14.945,0,0.000,16.507,17.041,0,0,1,0,6
PPG,2,20020,802350536,175,171024,189907,188996.578,910.422,64.078,0,0,0,0,83.33,83.33,2,1,0,nan,4,1,53,1,1,20,20,0,0,0,802617428,0.03687,-0.00024,0.95752,0.95823,-0.00798,0.00105,-0.00087,0.00810,0.95823,0.00431,0.00831,3,12212,0,1330,0.16439,0.05707,0.34715,99,1,nan,83,1,3,4338,185610,0,0,0.000,12.762,14.945,0,0.000,16.507,17.041,0,0,1,0,6
PPG,2,20021,802390536,126,171017,189916,189005.766,910.234,69.234,0,0,0,0,83.33,83.33,2,1,0,nan,4,1,53,1,1,21,21,0,0,0,802656719,0.04272,-0.00488,0.95142,0.95239,-0.00798,0.00158,-0.00247,0.00851,0.95940,0.00702,0.00882,3,12240,0,1330,0.16439,0.05707,0.34715,99,1,nan,83,1,3,4332,185610,0,0,0.000,12.762,14.945,0,0.000,16.507,17.041,0,0,1,0,6
PPG,2,20022,802430536,124,171044,189937,189015.078,921.922,77.922,0,0,0,0,83.33,83.33,2,1,0,nan,4,1,53,1,1,22,22,0,0,0,802695998,0.04321,-0.00366,0.96387,0.96484,-0.00745,0.00345,-0.00061,0.00823,0.96484,0.00728,0.00823,3,12247,0,1330,0.16439,0.05707,0.34715,99,1,nan,83,1,3,2625,185610,0,0,0.000,12.762,14.945,0,0.000,16.507,17.041,0,0,1,0,6
PPG,2,20023,802470536,128,171047,189971,189024.641,946.359,85.344,0,0,0,0,83.33,83.33,2,1,0,nan,4,1,53,1,1,23,23,0,0,0,802737824,0.04297,-0.00684,0.95850,0.95948,-0.00798,0.00212,-0.00034,0.00827,0.96062,0.00423,0.00827,3,12203,0,1330,0.16439,0.05707,0.34715,99,1,nan,83,1,3,4336,185610,0,0,0.000,12.762,14.945,0,0.000,16.507,17.041,0,0,1,0,6
PPG,2,20024,802510536,210,171087,190015,189034.547,980.453,100.422,0,0,0,0,83.33,83.33,2,1,0,nan,4,1,53,1,1,24,24,0,0,0,802777073,0.04150,-0.00879,0.95386,0.95480,-0.00718,0.00132,-0.00087,0.00736,0.96127,0.00647,0.00879,3,12248,0,1330,0.16439,0.05707,0.34715,99,1,nan,83,1,3,4346,185610,0,0,0.000,12.762,14.945,0,0.000,16.507,17.041,0,0,1,0,6
PPG,2,20025,802550536,126,171074,190007,189044.266,962.734,116.453,0,0,0,0,83.33,83.33,2,1,0,nan,4,1,53,1,1,25,25,0,0,0,802816604,0.03491,-0.00708,0.95996,0.96062,-0.00798,0.00079,-0.00061,0.00804,0.96085,0.00572,0.00836,3,12218,0,1330,0.16439,0.05707,0.34715,99,1,nan,83,1,3,2621,185610,0,0,0.000,12.762,14.945,0,0.000,16.507,17.041,0,0,1,0,6
PPG,2,20026,802590536,125,171004,189901,189052.828,848.172,119.578,1,0,0,0,83.33,83.33,2,1,0,nan,4,1,53,1,1,26,26,0,0,0,802858460,0.04150,-0.00439,0.95752,0.95843,-0.00745,0.00185,-0.00061,0.00770,0.96177,0.00267,0.00787,3,12226,0,1330,0.16439,0.05707,0.34715,99,1,nan,83,1,3,4314,185610,0,0,0.000,12.762,14.945,0,29.578,16.507,17.041,1,0,1,0,6
PPG,2,20027,802630536,195,170932,189737,189059.672,677.328,95.578,0,0,0,0,83.33,83.33,2,1,0,nan,4,1,53,1,1,27,27,0,0,0,802897699,0.04541,-0.00415,0.95313,0.95422,-0.00798,0.00105,-0.00034,0.00806,0.95695,0.00473,0.00806,3,12186,0,1330,0.16439,0.05707,0.34715,99,1,nan,83,1,3,4340,185610,0,0,0.000,12.762,14.945,0,0.000,16.507,17.041,0,0,1,0,6
PPG,2,20028,802670536,124,170918,189700,189066.078,633.922,58.766,0,0,0,0,83.33,83.33,2,1,0,nan,4,1,53,1,1,28,28,0,0,0,802936982,0.03662,-0.00610,0.95508,0.95580,-0.00798,0.00292,-0.00194,0.00872,0.95738,0.00317,0.00895,3,12127,0,1330,0.16439,0.05707,0.34715,99,1,nan,83,1,3,4299,185610,0,0,0.000,12.762,14.945,0,0.000,16.507,17.041,0,0,1,0,6
PPG,2,20029,802710536,125,170930,189736,189072.781,663.219,24.469,0,0,0,0,83.33,83.33,2,1,0,nan,4,1,53,1,1,29,29,0,0,0,802975947,0.04175,-0.00586,0.95483,0.95576,-0.00692,0.00105,-0.00061,0.00702,0.96181,0.00897,0.00871,3,12122,0,1330,0.16439,0.05707,0.34715,99,1,nan,83,1,3,2595,185610,0,0,0.000,12.762,14.945,0,0.000,16.507,17.041,0,0,1,0,6
PPG,2,20030,802750536,127,170935,189781,189079.859,701.141,-5.922,0,0,0,0,83.33,83.33,2,1,0,nan,4,1,53,1,1,30,30,0,0,0,803017493,0.04126,-0.00757,0.94922,0.95015,-0.00825,0.00212,0.00046,0.00853,0.95850,0.00518,0.00853,3,12114,0,1330,0.16439,0.05707,0.34715,99,1,nan,83,1,3,4295,185610,0,0,0.000,12.762,14.945,0,0.000,16.507,17.041,0,0,1,0,6
PPG,2,20031,802790536,126,170949,189837,189087.438,749.562,-37.203,0,0,0,0,83.33,83.33,2,1,0,nan,4,1,53,1,1,31,31,0,0,0,803056425,0.03979,-0.00195,0.96240,0.96323,-0.00825,0.00238,0.00019,0.00859,0.96323,0.00855,0.00859,3,12138,0,1330,0.16439,0.05707,0.34715,99,1,nan,83,1,3,2595,185610,0,0,0.000,12.762,14.945,0,0.000,16.507,17.041,0,0,1,0,6
PPG,2,20032,802830536,132,170946,189872,189095.281,776.719,-60.797,0,0,0,0,83.33,83.33,2,1,0,nan,4,1,53,1,1,0,0,0,0,0,803092735,0.03979,-0.00806,0.95996,0.96082,-0.00718,0.00345,-0.00167,0.00814,0.96723,0.00641,0.00814,2,18998,0,1330,0.16439,0.05707,0.34715,99,1,nan,83,1,3,2586,185610,0,0,0.000,12.762,14.945,0,0.000,16.507,17.041,0,0,1,0,6
PPG,2,20033,802870536,130,170991,189910,189103.422,806.578,-65.062,0,0,0,0,83.33,83.33,2,1,0,nan,4,1,53,1,1,1,1,0,0,0,803136983,0.04175,-0.00830,0.95483,0.95578,-0.00798,0.00158,-0.00034,0.00815,0.95748,0.00887,0.00815,3,12119,0,1330,0.16439,0.05707,0.34715,99,1,nan,83,1,3,4299,185610,0,0,0.000,12.762,14.945,0,0.000,16.507,17.041,0,0,1,0,6
PPG,2,20034,802910536,151,170983,189894,189111.328,782.672,-46.672,1,0,1,760,78.95,78.95,2,1,16,nan,4,1,53,1,1,2,2,0,0,0,803175968,0.03882,-0.00269,0.95923,0.96002,-0.00772,0.00132,-0.00087,0.00788,0.96166,0.00588,0.00814,3,12119,0,1330,0.16439,0.05707,0.34715,99,1,nan,83,1,3,2598,185610,0,0,28.766,12.762,14.945,1,55.500,16.507,17.041,1,1,1,0,6
PPG,2,20035,802950536,126,170946,189877,189118.984,758.016,-24.484,0,0,0,0,78.95,78.95,2,1,16,nan,4,1,53,1,1,3,3,0,0,0,803217631,0.04150,-0.00659,0.95728,0.95820,-0.00905,0.00105,-0.00141,0.00922,0.96553,0.01493,0.00922,3,12119,0,1330,0.16439,0.05707,0.34715,99,1,nan,83,1,3,4294,185610,0,0,0.000,12.239,13.555,0,0.000,15.878,15.668,0,0,1,0,6
PPG,2,20036,802990536,131,170975,189920,189127.000,793.000,-2.109,0,0,0,0,78.95,78.95,2,1,16,nan,4,1,53,1,1,4,4,0,0,0,803256540,0.04126,-0.00659,0.95728,0.95819,-0.00798,0.00158,-0.00087,0.00819,0.96864,0.01044,0.00889,3,12114,0,1330,0.16439,0.05707,0.34715,99,1,nan,83,1,3,2597,185610,0,0,0.000,12.239,13.555,0,0.000,15.878,15.668,0,0,1,0,6
PPG,2,20037,803030536,133,170984,189940,189135.125,804.875,15.062,0,0,0,0,78.95,78.95,2,1,16,nan,4,1,53,1,1,5,5,0,0,0,803298086,0.04199,-0.00488,0.95898,0.95992,-0.00825,0.00158,-0.00087,0.00845,0.95992,0.00722,0.00845,3,12150,0,1330,0.16439,0.05707,0.34715,99,1,nan,83,1,3,4312,185610,0,0,0.000,12.239,13.555,0,0.000,15.878,15.668,0,0,1,0,6
PPG,2,20038,803070536,133,170986,189971,189143.484,827.516,27.500,0,0,0,0,78.95,78.95,2,1,16,nan,4,1,53,1,1,6,6,0,0,0,803337061,0.03931,-0.00586,0.95752,0.95834,-0.00772,0.00238,-0.00087,0.00812,0.95834,0.00524,0.00818,3,12114,0,1330,0.16439,0.05707,0.34715,99,1,nan,83,1,3,4297,185610,0,0,0.000,12.239,13.555,0,0.000,15.878,15.668,0,0,1,0,6
PPG,2,20039,803110536,129,171046,190061,189152.656,908.344,44.500,0,0,0,0,78.95,78.95,2,1,16,nan,4,1,53,1,1,7,7,0,0,0,803375983,0.04443,-0.01025,0.95850,0.95958,-0.00852,0.00132,-0.00141,0.00873,0.95958,0.00760,0.00873,3,12118,0,1330,0.16439,0.05707,0.34715,99,1,nan,83,1,3,2599,185610,0,0,0.000,12.239,13.555,0,0.000,15.878,15.668,0,0,1,0,6
PPG,2,20040,803150536,127,171039,190062,189161.750,900.250,58.469,0,0,0,0,78.95,78.95,2,1,16,nan,4,1,53,1,1,8,8,0,0,0,803417519,0.04346,-0.00122,0.95581,0.95680,-0.00878,0.00105,-0.00194,0.00905,0.95851,0.00511,0.00905,3,12114,0,1330,0.16439,0.05707,0.34715,99,1,nan,83,1,3,4294,185610,0,0,0.000,12.239,13.555,0,0.000,15.878,15.668,0,0,1,0,6
PPG,2,20041,803190536,132,170993,189996,189170.094,825.906,69.031,0,0,0,0,78.95,78.95,2,1,16,nan,4,1,53,1,1,9,9,0,0,0,803456462,0.04004,-0.00391,0.95923,0.96007,-0.00825,0.00292,0.00019,0.00875,0.96054,0.00222,0.00875,3,12135,0,1330,0.16439,0.05707,0.34715,99,1,nan,83,1,3,2595,185610,0,0,0.000,12.239,13.555,0,0.000,15.878,15.668,0,0,1,0,6
PPG,2,20042,803230536,127,171028,190030,189178.688,851.312,86.234,0,0,0,0,78.95,78.95,2,1,16,nan,4,1,53,1,1,10,10,0,0,0,803497994,0.04248,-0.00415,0.95190,0.95286,-0.00825,0.00105,0.00019,0.00832,0.95807,0.00521,0.00832,3,12130,0,1330,0.16439,0.05707,0.34715,99,1,nan,83,1,3,4321,185610,0,0,0.000,12.239,13.555,0,0.000,15.878,15.668,0,0,1,0,6
PPG,2,20043,803270536,127,171043,190047,189187.375,859.625,100.578,0,0,0,0,78.95,78.95,2,1,16,nan,4,1,53,1,1,11,11,0,0,0,803537012,0.03760,-0.00293,0.95801,0.95875,-0.00772,0.00079,0.00019,0.00776,0.96004,0.00718,0.00776,3,12109,0,1330,0.16439,0.05707,0.34715,99,1,nan,83,1,3,4295,185610,0,0,0.000,12.239,13.555,0,0.000,15.878,15.668,0,0,1,0,6
PPG,2,20044,803310536,509,170993,190004,189195.547,808.453,110.266,0,0,0,0,78.95,78.95,2,1,16,nan,4,1,53,1,1,12,12,0,0,0,803575948,0.04028,-0.00635,0.95630,0.95717,-0.00718,0.00238,-0.00034,0.00758,0.95963,0.00129,0.00850,3,12126,0,1330,0.16657,0.05340,0.32057,97,1,nan,107,1,3,2595,185610,0,0,0.000,12.239,13.555,0,0.000,15.878,15.668,0,0,1,0,6
PPG,2,20045,803350536,179,170987,189976,189203.344,772.656,112.547,0,0,0,0,78.95,78.95,2,1,16,nan,4,1,53,1,1,13,13,0,0,0,803618002,0.04126,-0.00488,0.95850,0.95940,-0.00931,0.00158,-0.00087,0.00949,0.95940,0.00266,0.00949,3,12191,0,1330,0.16657,0.05340,0.32057,97,1,nan,107,1,3,4299,185610,0,0,0.000,12.239,13.555,0,0.000,15.878,15.668,0,0,1,0,6
PPG,2,20046,803390536,137,170994,189912,189210.438,701.562,90.703,0,0,0,0,78.95,78.95,2,1,16,nan,4,1,53,1,1,14,14,0,0,0,803656982,0.04028,-0.00122,0.95605,0.95690,-0.00825,0.00345,-0.00114,0.00901,0.96160,0.00780,0.00929,3,12118,0,1330,0.16657,0.05340,0.32057,97,1,nan,107,1,3,4299,185610,0,0,0.000,12.239,13.555,0,0.000,15.878,15.668,0,0,1,0,6
PPG,2,20047,803430536,145,171123,190033,189218.656,814.344,71.766,0,0,0,0,78.95,78.95,2,1,16,nan,4,1,53,1,1,15,15,0,0,0,803695994,0.04272,-0.00415,0.95630,0.95726,-0.00798,0.00212,0.00019,0.00826,0.95726,0.00243,0.00867,3,12125,0,1330,0.16657,0.05340,0.32057,97,1,nan,107,1,3,2602,185610,0,0,0.000,12.239,13.555,0,0.000,15.878,15.668,0,0,1,0,6
PPG,2,20048,803470536,127,171197,190127,189227.734,899.266,69.125,0,0,0,0,78.95,78.95,2,1,16,nan,4,1,53,1,1,16,16,0,0,0,803737688,0.04248,-0.00928,0.95947,0.96046,-0.00825,0.00105,-0.00061,0.00834,0.96083,0.00220,0.00834,3,12114,0,1330,0.16657,0.05340,0.32057,97,1,nan,107,1,3,4299,185610,0,0,0.000,12.239,13.555,0,0.000,15.878,15.668,0,0,1,0,6
PPG,2,20049,803510536,127,171152,190097,189236.422,860.578,60.656,0,0,0,0,78.95,78.95,2,1,16,nan,4,1,53,1,1,17,17,0,0,0,803776612,0.04419,-0.00562,0.95557,0.95660,-0.00745,0.00238,-0.00061,0.00785,0.96115,0.00536,0.00795,3,12118,0,1330,0.16657,0.05340,0.32057,97,1,nan,107,1,3,2597,185610,0,0,0.000,12.239,13.555,0,0.000,15.878,15.668,0,0,1,0,6
PPG,2,20050,803550536,126,171176,190154,189245.594,908.406,57.281,0,0,0,0,78.95,78.95,2,1,16,nan,4,1,53,1,1,18,18,0,0,0,803818197,0.03979,-0.00073,0.96021,0.96103,-0.00798,0.00185,-0.00034,0.00820,0.96248,0.00818,0.00820,3,12176,0,1330,0.16657,0.05340,0.32057,97,1,nan,107,1,3,4307,185610,0,0,0.000,12.239,13.555,0,0.000,15.878,15.668,0,0,1,0,6
PPG,2,20051,803590536,132,171231,190221,189255.344,965.656,69.078,0,0,0,0,78.95,78.95,2,1,16,nan,4,1,53,1,1,19,19,0,0,0,803857122,0.03540,-0.00586,0.95825,0.95892,-0.00852,0.00025,-0.00007,0.00852,0.96438,0.00546,0.00852,3,12126,0,1330,0.16657,0.05340,0.32057,97,1,nan,107,1,3,4298,185610,0,0,0.000,12.239,13.555,0,0.000,15.878,15.668,0,0,1,0,6
PPG,2,20052,803630536,127,171170,190160,189264.391,895.609,80.984,0,0,0,0,78.95,78.95,2,1,16,nan,4,1,53,1,1,20,20,0,0,0,803896018,0.04370,-0.00562,0.95776,0.95878,-0.00692,0.00079,-0.00061,0.00699,0.96045,0.00317,0.00762,3,12108,0,1330,0.16657,0.05340,0.32057,97,1,nan,107,1,3,2595,185610,0,0,0.000,12.239,13.555,0,0.000,15.878,15.668,0,0,1,0,6
PPG,2,20053,803670536,149,171129,190106,189272.812,833.188,98.875,1,0,1,760,78.95,78.95,2,1,16,nan,4,1,53,1,1,21,21,0,0,0,803937854,0.03857,-0.00513,0.94946,0.95026,-0.00798,0.00158,-0.00061,0.00816,0.96032,0.01006,0.00816,3,12278,0,1330,0.16657,0.05340,0.32057,97,1,nan,107,1,3,4366,185610,0,0,94.109,12.239,13.555,1,177.609,15.878,15.668,1,1,1,0,7
PPG,2,20054,803710536,140,171132,190150,189281.578,868.422,102.797,0,0,0,0,78.95,78.95,2,1,16,nan,4,1,53,1,1,22,22,0,0,0,803977100,0.04346,-0.00562,0.96338,0.96437,-0.00772,0.00025,0.00046,0.00773,0.96437,0.00824,0.00859,3,12202,0,1330,0.16657,0.05340,0.32057,97,1,nan,107,1,3,4299,185610,0,0,0.000,12.190,13.425,0,0.000,16.091,16.133,0,0,1,0,7
PPG,2,20055,803750536,136,171129,190141,189290.172,850.828,91.594,0,0,0,0,78.95,78.95,2,1,16,nan,4,1,53,1,1,23,23,0,0,0,804016040,0.04028,-0.00586,0.95630,0.95716,-0.00825,-0.00055,-0.00167,0.00843,0.96204,0.00624,0.00866,3,12123,0,1330,0.16657,0.05340,0.32057,97,1,nan,107,1,3,2663,185610,0,0,0.000,12.190,13.425,0,0.000,16.091,16.133,0,0,1,0,7
PPG,2,20056,803790536,127,171086,190110,189298.375,811.625,83.953,0,0,0,0,78.95,78.95,2,1,16,nan,4,1,53,1,1,24,24,0,0,0,804057729,0.04321,-0.00732,0.95166,0.95267,-0.00798,0.00318,-0.00007,0.00859,0.96452,0.01185,0.00892,3,12131,0,1330,0.16657,0.05340,0.32057,97,1,nan,107,1,3,4295,185610,0,0,0.000,12.190,13.425,0,0.000,16.091,16.133,0,0,1,0,7
PPG,2,20057,803830536,134,171074,190137,189306.766,830.234,71.672,0,0,0,0,78.95,78.95,2,1,16,nan,4,1,53,1,1,25,25,0,0,0,804094210,0.04004,-0.00220,0.95776,0.95860,-0.00745,0.00318,-0.00061,0.00812,0.95860,0.00337,0.00937,2,21823,0,1331,0.16657,0.05340,0.32057,97,1,nan,107,1,3,2595,185610,0,0,0.000,12.190,13.425,0,0.000,16.091,16.133,0,0,1,0,7
PPG,2,20058,803870536,131,171197,190279,189316.484,962.516,64.562,0,0,0,0,78.95,78.95,2,1,16,nan,4,1,53,1,1,26,26,0,0,0,804138784,0.04102,-0.00781,0.95557,0.95648,-0.00745,0.00132,-0.00061,0.00759,0.95648,0.00308,0.00830,3,12236,0,1331,0.16657,0.05340,0.32057,97,1,nan,107,1,3,4343,185610,0,0,0.000,12.190,13.425,0,0.000,16.091,16.133,0,0,1,0,7
PPG,2,20059,803910536,131,171324,190448,189327.797,1120.203,86.359,0,0,0,0,78.95,78.95,2,1,16,nan,4,1,53,1,1,27,27,0,0,0,804178172,0.03564,-0.00684,0.95679,0.95748,-0.00825,0.00132,-0.00034,0.00836,0.96082,0.00435,0.00836,3,12283,0,1331,0.16657,0.05340,0.32057,97,1,nan,107,1,3,4340,185610,0,0,0.000,12.190,13.425,0,0.000,16.091,16.133,0,0,1,0,7
PPG,2,20060,803950536,127,171339,190469,189339.203,1129.797,117.875,0,0,0,0,78.95,78.95,2,1,16,nan,4,1,53,1,1,28,28,0,0,0,804217463,0.03931,-0.00732,0.95776,0.95860,-0.00745,0.00292,-0.00087,0.00805,0.96286,0.01022,0.00805,3,12266,0,1331,0.16657,0.05340,0.32057,97,1,nan,107,1,3,4335,185610,0,0,0.000,12.190,13.425,0,0.000,16.091,16.133,0,0,1,0,7
PPG,2,20061,803990536,130,171331,190468,189350.484,1117.516,139.688,0,0,0,0,78.95,78.95,2,1,16,nan,4,1,53,1,1,29,29,0,0,0,804256756,0.04395,-0.00269,0.95728,0.95829,-0.00772,0.00052,-0.00114,0.00782,0.95932,0.00240,0.00845,3,12260,0,1331,0.16657,0.05340,0.32057,97,1,nan,107,1,3,2632,185610,0,0,78.438,12.190,13.425,1,0.000,16.091,16.133,0,0,1,0,7
PPG,2,20062,804030536,153,171259,190405,189361.031,1043.969,158.656,1,0,1,340,78.95,78.95,2,1,16,nan,4,1,53,1,1,30,30,0,0,0,804298760,0.04419,-0.00757,0.95972,0.96076,-0.00745,0.00158,-0.00141,0.00775,0.96281,0.00452,0.00786,3,12207,0,1331,0.16657,0.05340,0.32057,97,1,nan,107,1,3,4330,185610,0,0,0.000,12.190,13.425,0,45.516,16.091,16.133,1,1,1,0,7
PPG,2,20063,804070536,131,171224,190368,189371.094,996.906,179.469,0,0,0,0,78.95,78.95,2,1,16,nan,4,1,53,1,1,31,31,0,0,0,804338172,0.03589,-0.00024,0.95557,0.95624,-0.00825,0.00212,-0.00034,0.00852,0.96321,0.00534,0.00861,3,12266,0,1331,0.16657,0.05340,0.32057,97,1,nan,107,1,3,4335,185610,0,0,0.000,12.050,13.051,0,0.000,15.452,14.738,0,0,1,0,7
PPG,2,20064,804110536,129,171217,190374,189381.125,992.875,194.828,0,0,0,0,78.95,78.95,2,1,16,nan,4,1,53,1,1,0,0,0,0,0,804377433,0.04150,-0.00757,0.95947,0.96040,-0.00798,0.00398,-0.00114,0.00899,0.96040,0.00381,0.00911,3,12249,0,1331,0.16657,0.05340,0.32057,97,1,nan,107,1,3,4331,185610,0,0,0.000,12.050,13.051,0,0.000,15.452,14.738,0,0,1,0,7
PPG,2,20065,804150536,147,171283,190391,189391.219,999.781,190.078,0,0,0,0,78.95,78.95,2,1,16,nan,4,1,53,1,1,1,1,0,0,0,804416711,0.04639,-0.00317,0.95410,0.95523,-0.00718,0.00185,-0.00087,0.00747,0.96083,0.00521,0.00768,3,12254,0,1331,0.16657,0.05340,0.32057,97,1,nan,107,1,3,2642,185610,0,0,0.000,12.050,13.051,0,0.000,15.452,14.738,0,0,1,0,7
PPG,2,20066,804190536,129,171279,190318,189400.484,917.516,151.203,0,0,0,0,78.95,78.95,2,1,16,nan,4,1,53,1,1,2,2,0,0,0,804458649,0.04321,-0.00513,0.95581,0.95680,-0.00772,0.00105,0.00019,0.00779,0.95833,0.00309,0.00794,3,12202,0,1331,0.16657,0.05340,0.32057,97,1,nan,107,1,3,4321,185610,0,0,0.000,12.050,13.051,0,0.000,15.452,14.738,0,0,1,0,7
PPG,2,20067,804230536,136,171283,190340,189409.875,930.125,117.422,0,0,0,0,78.95,78.95,2,1,16,nan,4,1,53,1,1,3,3,0,0,0,804497892,0.04077,-0.00513,0.95923,0.96011,-0.00772,0.00318,-0.00141,0.00846,0.96011,0.00736,0.00944,3,12254,0,1331,0.16657,0.05340,0.32057,97,1,nan,107,1,3,4324,185610,0,0,0.000,12.050,13.051,0,0.000,15.452,14.738,0,0,1,0,7
PPG,2,20068,804270536,131,171335,190441,189420.188,1020.812,97.875,0,0,0,0,78.95,78.95,2,1,16,nan,4,1,53,1,1,4,4,0,0,0,804537191,0.04321,-0.00659,0.95337,0.95437,-0.00798,0.00132,-0.00087,0.00814,0.95934,0.00773,0.00874,3,12280,0,1331,0.16657,0.05340,0.32057,97,1,nan,107,1,3,2631,185610,0,0,0.000,12.050,13.051,0,0.000,15.452,14.738,0,0,1,0,7
PPG,2,20069,804310536,515,171275,190383,189429.812,953.188,80.422,0,0,0,0,78.95,78.95,2,1,16,nan,4,1,53,1,1,5,5,0,0,0,804579168,0.04785,-0.01196,0.98755,0.98878,-0.02104,-0.00827,-0.00034,0.02261,0.98878,0.04203,0.02261,3,12248,0,1331,0.18223,0.08004,0.43923,98,1,99.019,115,1,3,4333,185610,0,0,0.000,12.050,13.051,0,0.000,15.452,14.738,0,0,1,0,7
PPG,2,20070,804350536,194,171207,190347,189438.984,908.016,67.781,0,0,0,0,78.95,78.95,2,1,16,nan,4,1,53,1,1,6,6,0,0,0,804618952,0.04028,-0.00854,0.96631,0.96719,-0.00612,0.00585,-0.00007,0.00846,0.97336,0.01917,0.02078,3,12232,0,1331,0.18223,0.08004,0.43923,98,1,99.019,115,1,3,4328,185610,0,0,0.000,12.050,13.051,0,0.000,15.452,14.738,0,0,1,0,7
PPG,2,20071,804390536,129,171258,190404,189448.641,955.359,62.906,0,0,0,0,78.95,78.95,2,1,16,nan,4,1,53,1,1,7,7,0,0,0,804658304,0.04004,-0.00659,0.95264,0.95350,-0.00532,0.00345,-0.00034,0.00635,0.96094,0.00963,0.00795,3,12243,0,1331,0.18223,0.08004,0.43923,98,1,99.019,115,1,3,4334,185610,0,0,0.000,12.050,13.051,0,0.000,15.452,14.738,0,0,1,0,7
PPG,2,20072,804430536,157,171264,190381,189457.969,923.031,50.422,1,0,1,420,83.33,83.33,2,1,16,nan,4,1,53,1,1,8,8,0,0,0,804697573,0.04224,-0.01050,0.95728,0.95826,-0.00958,-0.00001,0.00019,0.00958,0.95826,0.00437,0.00958,3,12253,0,1331,0.18223,0.08004,0.43923,98,1,99.019,115,1,3,4336,185610,0,0,61.547,12.039,13.071,1,130.266,15.452,14.738,1,1,1,0,7
PPG,2,20073,804470536,126,171200,190308,189466.469,841.531,38.906,0,0,0,0,83.33,83.33,2,1,16,nan,4,1,53,1,1,9,9,0,0,0,804736924,0.04346,-0.00830,0.94922,0.95025,-0.00718,0.00265,-0.00141,0.00778,0.96440,0.01415,0.00778,3,12260,0,1331,0.18223,0.08004,0.43923,98,1,99.019,115,1,3,2595,185610,0,0,0.000,11.810,12.462,0,0.000,15.422,14.673,0,0,1,0,7
PPG,2,20074,804510536,128,171202,190311,189474.906,836.094,26.703,0,0,0,0,83.33,83.33,2,1,16,nan,4,1,53,1,1,10,10,0,0,0,804778666,0.04224,-0.00659,0.95776,0.95872,-0.00958,-0.00055,-0.00034,0.00960,0.96258,0.01233,0.00960,3,12120,0,1331,0.18223,0.08004,0.43923,98,1,99.019,115,1,3,4304,185610,0,0,0.000,11.810,12.462,0,0.000,15.422,14.673,0,0,1,0,7
PPG,2,20075,804550536,129,171168,190275,189482.906,792.094,-3.703,0,0,0,0,83.33,83.33,2,1,16,nan,4,1,53,1,1,11,11,0,0,0,804817681,0.04419,-0.00659,0.96021,0.96124,-0.01011,-0.00081,-0.00221,0.01038,0.96177,0.00241,0.01038,3,12120,0,1331,0.18223,0.08004,0.43923,98,1,99.019,115,1,3,4302,185610,0,0,0.000,11.810,12.462,0,0.000,15.422,14.673,0,0,1,0,7
PPG,2,20076,804590536,128,171162,190294,189491.016,802.984,-25.625,0,0,0,0,83.33,83.33,2,1,16,nan,4,1,53,1,1,12,12,0,0,0,804856765,0.04199,-0.00659,0.95850,0.95944,-0.00958,0.00132,-0.00061,0.00969,0.96250,0.00574,0.01012,3,12152,0,1331,0.18223,0.08004,0.43923,98,1,99.019,115,1,3,2601,185610,0,0,0.000,11.810,12.462,0,0.000,15.422,14.673,0,0,1,0,7
PPG,2,20077,804630536,129,171208,190362,189499.719,862.281,-34.719,0,0,0,0,83.33,83.33,2,1,16,nan,4,1,53,1,1,13,13,0,0,0,804898356,0.03931,-0.00366,0.95776,0.95858,-0.00985,0.00105,-0.00007,0.00990,0.96514,0.00690,0.01119,3,12123,0,1331,0.18223,0.08004,0.43923,98,1,99.019,115,1,3,4302,185610,0,0,0.000,11.810,12.462,0,0.000,15.422,14.673,0,0,1,0,7
PPG,2,20078,804670536,128,171257,190433,189509.047,923.953,-38.281,0,0,0,0,83.33,83.33,2,1,16,nan,4,1,53,1,1,14,14,0,0,0,804937345,0.04248,-0.00488,0.96094,0.96189,-0.00958,-0.00055,-0.00034,0.00960,0.96189,0.00703,0.00987,3,12144,0,1331,0.18223,0.08004,0.43923,98,1,99.019,115,1,3,2630,185610,0,0,0.000,11.810,12.462,0,0.000,15.422,14.673,0,0,1,0,7
PPG,2,20079,804710536,146,171306,190537,189519.328,1017.672,-20.453,0,0,0,0,83.33,83.33,2,1,16,nan,4,1,53,1,1,15,15,0,0,0,804978926,0.04565,-0.00928,0.95483,0.95597,-0.01038,-0.00028,-0.00114,0.01045,0.96679,0.01082,0.01045,3,12122,0,1331,0.18223,0.08004,0.43923,98,1,99.019,115,1,3,4297,185610,0,0,0.000,11.810,12.462,0,0.000,15.422,14.673,0,0,1,0,7
PPG,2,20080,804750536,128,171375,190623,189530.359,1092.641,16.844,0,0,0,0,83.33,83.33,2,1,16,nan,4,1,53,1,1,16,16,0,0,0,805017924,0.04126,-0.00684,0.95508,0.95599,-0.00985,-0.00028,-0.00034,0.00986,0.95942,0.00549,0.01067,3,12117,0,1331,0.18223,0.08004,0.43923,98,1,99.019,115,1,3,4297,185610,0,0,0.000,11.810,12.462,0,0.000,15.422,14.673,0,0,1,0,7
PPG,2,20081,804790536,128,171402,190686,189541.922,1144.078,59.531,0,0,0,0,83.33,83.33,2,1,16,nan,4,1,53,1,1,17,17,0,0,0,805056917,0.04614,-0.00781,0.95996,0.96110,-0.00958,0.00025,-0.00061,0.00960,0.96628,0.01028,0.00960,3,12120,0,1331,0.18223,0.08004,0.43923,98,1,99.019,115,1,3,2594,185610,0,0,0.000,11.810,12.462,0,0.000,15.422,14.673,0,0,1,0,7
PPG,2,20082,804830536,133,171427,190704,189553.547,1150.453,105.859,0,0,0,0,83.33,83.33,2,1,16,nan,4,1,53,1,1,18,18,0,0,0,805095692,0.04370,-0.00562,0.95410,0.95512,-0.00745,-0.00028,-0.00087,0.00751,0.95512,0.00598,0.00801,2,21474,0,1332,0.18223,0.08004,0.43923,98,1,99.019,115,1,3,2601,185610,0,0,0.000,11.810,12.462,0,0.000,15.422,14.673,0,0,1,0,7
PPG,2,20083,804870536,132,171427,190709,189565.094,1143.906,148.094,0,0,0,0,83.33,83.33,2,1,16,nan,4,1,53,1,1,19,19,0,0,0,805137330,0.04028,-0.00708,0.95703,0.95790,-0.00825,0.00132,-0.00034,0.00836,0.96600,0.00904,0.00836,3,12110,0,1332,0.18223,0.08004,0.43923,98,1,99.019,115,1,3,2602,185610,0,0,0.000,11.810,12.462,0,0.000,15.422,14.673,0,0,1,0,7
PPG,2,20084,804910536,129,171433,190735,189576.797,1158.203,183.328,0,0,0,0,83.33,83.33,2,1,16,nan,4,1,53,1,1,20,20,0,0,0,805178921,0.04297,-0.00781,0.96045,0.96144,-0.00852,0.00052,0.00046,0.00854,0.96194,0.00390,0.00950,3,12122,0,1332,0.18223,0.08004,0.43923,98,1,99.019,115,1,3,4299,185610,0,0,0.000,11.810,12.462,0,0.000,15.422,14.673,0,0,1,0,7
PPG,2,20085,804950536,130,171403,190651,189587.531,1063.469,201.484,0,0,0,0,83.33,83.33,2,1,16,nan,4,1,53,1,1,21,21,0,0,0,805217864,0.04150,-0.00439,0.96362,0.96453,-0.00931,0.00105,-0.00087,0.00941,0.96453,0.00574,0.00941,3,12123,0,1332,0.18223,0.08004,0.43923,98,1,99.019,115,1,3,4300,185610,0,0,0.000,11.810,12.462,0,0.000,15.422,14.673,0,0,1,0,7
PPG,2,20086,804990536,185,171335,190535,189597.000,938.000,190.328,0,0,0,0,83.33,83.33,2,1,16,nan,4,1,53,1,1,22,22,0,0,0,805257050,0.04395,-0.00635,0.95898,0.96001,-0.00798,0.00132,-0.00087,0.00814,0.96065,0.01067,0.00876,3,12332,0,1332,0.18223,0.08004,0.43923,98,1,99.019,115,1,3,2639,185610,0,0,0.000,11.810,12.462,0,0.000,15.422,14.673,0,0,1,0,7
PPG,2,20087,805030536,144,171312,190531,189606.344,924.656,167.641,0,0,0,0,83.33,83.33,2,1,16,nan,4,1,53,1,1,23,23,0,0,0,805299034,0.04248,-0.00537,0.95459,0.95555,-0.00745,0.00292,0.00046,0.00801,0.95651,0.00350,0.00850,3,12195,0,1332,0.18223,0.08004,0.43923,98,1,99.019,115,1,3,4294,185610,0,0,0.000,11.810,12.462,0,0.000,15.422,14.673,0,0,1,0,7
PPG,2,20088,805070536,129,171325,190565,189615.938,949.062,144.156,0,0,0,0,83.33,83.33,2,1,16,nan,4,1,53,1,1,24,24,0,0,0,805337982,0.04028,-0.00513,0.96167,0.96253,-0.00798,0.00212,-0.00034,0.00827,0.96490,0.00983,0.00868,3,12116,0,1332,0.18223,0.08004,0.43923,98,1,99.019,115,1,3,4317,185610,0,0,0.000,11.810,12.462,0,0.000,15.422,14.673,0,0,1,0,7
PPG,2,20089,805110536,131,171347,190607,189625.844,981.156,119.094,0,0,0,0,83.33,83.33,2,1,16,nan,4,1,53,1,1,25,25,0,0,0,805377189,0.04102,-0.00439,0.95483,0.95572,-0.00852,0.00132,-0.00061,0.00864,0.95833,0.00424,0.00864,3,12242,0,1332,0.18223,0.08004,0.43923,98,1,99.019,115,1,3,2606,185610,0,0,0.000,11.810,12.462,0,0.000,15.422,14.673,0,0,1,0,7
PPG,2,20090,805150536,129,171355,190645,189636.031,1008.969,95.062,0,0,0,0,83.33,83.33,2,1,16,nan,4,1,53,1,1,26,26,0,0,0,805418925,0.04639,-0.00781,0.95630,0.95746,-0.00905,0.00185,-0.00114,0.00931,0.95982,0.00410,0.00952,3,12118,0,1332,0.18223,0.08004,0.43923,98,1,99.019,115,1,3,4295,185610,0,0,0.000,11.810,12.462,0,0.000,15.422,14.673,0,0,1,0,7
PPG,2,20091,805190536,132,171358,190634,189646.016,987.984,69.125,0,0,0,0,83.33,83.33,2,1,16,nan,4,1,53,1,1,27,27,0,0,0,805458355,0.04297,-0.00439,0.95239,0.95337,-0.00718,0.00158,-0.00061,0.00738,0.96145,0.00808,0.00868,3,12251,0,1332,0.18223,0.08004,0.43923,98,1,99.019,115,1,3,4347,185610,0,0,0.000,11.810,12.462,0,0.000,15.422,14.673,0,0,1,0,7
PPG,2,20092,805230536,129,171297,190565,189655.203,909.797,47.641,0,0,0,0,83.33,83.33,2,1,16,nan,4,1,53,1,1,28,28,0,0,0,805497734,0.04663,-0.00610,0.96094,0.96209,-0.00878,0.00105,-0.00034,0.00885,0.96209,0.00443,0.00885,3,12269,0,1332,0.18223,0.08004,0.43923,98,1,99.019,115,1,3,4330,185610,0,0,0.000,11.810,12.462,0,0.000,15.422,14.673,0,0,1,0,7
PPG,2,20093,805270536,131,171296,190541,189664.062,876.938,36.844,1,0,0,0,83.33,83.33,2,1,16,nan,4,1,53,1,1,29,29,0,0,0,805537025,0.03906,-0.00342,0.95581,0.95661,-0.00905,0.00105,-0.00141,0.00922,0.96013,0.00546,0.00952,3,12216,0,1332,0.18223,0.08004,0.43923,98,1,99.019,115,1,3,2611,185610,0,0,0.000,11.810,12.462,0,239.766,15.422,14.673,1,0,1,0,7
PPG,2,20094,805310536,560,171287,190563,189673.047,889.953,28.828,0,0,1,860,83.33,83.33,2,1,16,nan,4,1,53,1,1,30,30,0,0,0,805579091,0.04468,-0.00684,0.95825,0.95932,-0.00798,0.00132,0.00046,0.00810,0.96188,0.00451,0.00810,3,12261,0,1332,0.17655,0.09050,0.51261,96,1,97.185,83,1,3,4346,185610,0,0,148.969,11.810,12.462,1,0.000,15.422,14.673,0,1,1,0,7
PPG,2,20095,805350536,194,171242,190540,189681.719,858.281,12.000,0,0,0,0,83.33,83.33,2,1,16,nan,4,1,53,1,1,31,31,0,0,0,805618910,0.04028,-0.01001,0.96045,0.96135,-0.00692,0.00158,-0.00007,0.00710,0.96135,0.00284,0.00859,3,12205,0,1332,0.17655,0.09050,0.51261,96,1,97.185,83,1,3,4344,185610,0,0,0.000,12.157,13.384,0,0.000,16.081,16.111,0,0,1,0,7
PPG,2,20096,805390536,128,171149,190424,189689.141,734.859,-20.641,0,0,0,0,83.33,83.33,2,1,16,nan,4,1,53,1,1,0,0,0,0,0,805658309,0.04492,-0.00537,0.96240,0.96347,-0.00931,0.00185,-0.00061,0.00952,0.96347,0.00564,0.00952,3,12282,0,1332,0.17655,0.09050,0.51261,96,1,97.185,83,1,3,4351,185610,0,0,0.000,12.157,13.384,0,0.000,16.081,16.111,0,0,1,0,7
PPG,2,20097,805430536,129,171149,190440,189696.656,743.344,-53.828,0,0,0,0,83.33,83.33,2,1,16,nan,4,1,53,1,1,1,1,0,0,0,805697572,0.04199,-0.00562,0.96753,0.96846,-0.00798,0.00212,-0.00007,0.00826,0.96846,0.00827,0.00826,3,12182,0,1332,0.17655,0.09050,0.51261,96,1,97.185,83,1,3,2634,185610,0,0,0.000,12.157,13.384,0,0.000,16.081,16.111,0,0,1,0,7
PPG,2,20098,805470536,140,171189,190476,189704.453,771.547,-78.547,0,0,0,0,83.33,83.33,2,1,16,nan,4,1,53,1,1,2,2,0,0,0,805739487,0.04297,-0.00659,0.96265,0.96363,-0.00772,0.00105,-0.00034,0.00779,0.96363,0.01168,0.00810,3,12244,0,1332,0.17655,0.09050,0.51261,96,1,97.185,83,1,3,4327,185610,0,0,0.000,12.157,13.384,0,0.000,16.081,16.111,0,0,1,0,7
PPG,2,20099,805510536,133,171201,190490,189712.312,777.688,-86.922,0,0,0,0,83.33,83.33,2,1,16,nan,4,1,53,1,1,3,3,0,0,0,805778845,0.04395,-0.00659,0.95288,0.95392,-0.00878,0.00158,0.00019,0.00893,0.96065,0.00698,0.00893,3,12223,0,1332,0.17655,0.09050,0.51261,96,1,97.185,83,1,3,4347,185610,0,0,0.000,12.157,13.384,0,0.000,16.081,16.111,0,0,1,0,7
PPG,2,20100,805550536,130,171211,190499,189720.172,778.828,-86.719,0,0,0,0,83.33,83.33,2,1,16,nan,4,1,53,1,1,4,4,0,0,0,805818278,0.04199,-0.00439,0.95850,0.95943,-0.00852,0.00132,-0.00114,0.00869,0.96109,0.00379,0.00923,3,12242,0,1332,0.17655,0.09050,0.51261,96,1,97.185,83,1,3,4347,185610,0,0,0.000,12.157,13.384,0,0.000,16.081,16.111,0,0,1,0,7
PPG,2,20101,805590536,130,171225,190540,189728.375,811.625,-82.703,0,0,0,0,83.33,83.33,2,1,16,nan,4,1,53,1,1,5,5,0,0,0,805857606,0.04321,-0.00854,0.95972,0.96073,-0.00985,0.00132,-0.00087,0.00997,0.96073,0.00329,0.00997,3,12282,0,1332,0.17655,0.09050,0.51261,96,1,97.185,83,1,3,2648,185610,0,0,0.000,12.157,13.384,0,0.000,16.081,16.111,0,0,1,0,7
PPG,2,20102,805630536,129,171208,190537,189736.469,800.531,-74.766,0,0,0,0,83.33,83.33,2,1,16,nan,4,1,53,1,1,6,6,0,0,0,805899562,0.04346,-0.00562,0.95581,0.95681,-0.00692,0.00132,-0.00087,0.00710,0.96051,0.00370,0.00958,3,12256,0,1332,0.17655,0.09050,0.51261,96,1,97.185,83,1,3,4337,185610,0,0,0.000,12.157,13.384,0,0.000,16.081,16.111,0,0,1,0,7
PPG,2,20103,805670536,133,171187,190515,189744.250,770.750,-52.078,0,0,0,0,83.33,83.33,2,1,16,nan,4,1,53,1,1,7,7,0,0,0,805938822,0.04248,-0.00928,0.96338,0.96436,-0.00745,0.00132,-0.00194,0.00781,0.96436,0.00647,0.00781,3,12218,0,1332,0.17655,0.09050,0.51261,96,1,97.185,83,1,3,4338,185610,0,0,0.000,12.157,13.384,0,0.000,16.081,16.111,0,0,1,0,7
PPG,2,20104,805710536,137,171111,190399,189750.797,648.203,-41.125,0,0,0,0,83.33,83.33,2,1,16,nan,4,1,53,1,1,8,8,0,0,0,805978089,0.04297,-0.00610,0.96118,0.96216,-0.00745,0.00238,0.00019,0.00782,0.96216,0.00756,0.00812,3,12225,0,1332,0.17655,0.09050,0.51261,96,1,97.185,83,1,3,4342,185610,0,0,0.000,12.157,13.384,0,0.000,16.081,16.111,0,0,1,0,7
PPG,2,20105,805750536,149,171077,190291,189756.203,534.797,-49.562,0,0,0,0,83.33,83.33,2,1,16,nan,4,1,53,1,1,9,9,0,0,0,806017384,0.04370,-0.00659,0.95557,0.95659,-0.00772,0.00079,0.00073,0.00779,0.95659,0.00966,0.00852,3,12246,0,1332,0.17655,0.09050,0.51261,96,1,97.185,83,1,3,2619,185610,0,0,0.000,12.157,13.384,0,0.000,16.081,16.111,0,0,1,0,7
PPG,2,20106,805790536,140,171096,190305,189761.688,543.312,-64.484,0,0,0,0,83.33,83.33,2,1,16,nan,4,1,53,1,1,10,10,0,0,0,806059300,0.04419,-0.00488,0.95313,0.95416,-0.00745,0.00185,-0.00087,0.00773,0.95904,0.00641,0.00773,3,12212,0,1332,0.17655,0.09050,0.51261,96,1,97.185,83,1,3,4324,185610,0,0,0.000,12.157,13.384,0,0.000,16.081,16.111,0,0,1,0,7
PPG,2,20107,805830536,135,171094,190345,189767.516,577.484,-77.188,0,0,0,0,83.33,83.33,2,1,16,nan,4,1,53,1,1,11,11,0,0,0,806095858,0.04590,-0.00610,0.95947,0.96059,-0.00772,0.00212,-0.00007,0.00800,0.96356,0.00940,0.00800,2,21730,0,1333,0.17655,0.09050,0.51261,96,1,97.185,83,1,3,2595,185610,0,0,0.000,12.157,13.384,0,0.000,16.081,16.111,0,0,1,0,7
PPG,2,20108,805870536,133,171099,190373,189773.578,599.422,-91.453,0,0,0,0,83.33,83.33,2,1,16,nan,4,1,53,1,1,12,12,0,0,0,806137658,0.04443,-0.00537,0.95776,0.95881,-0.00745,0.00212,-0.00114,0.00783,0.95881,0.00484,0.00783,3,12127,0,1333,0.17655,0.09050,0.51261,96,1,97.185,83,1,3,2595,185610,0,0,0.000,12.157,13.384,0,0.000,16.081,16.111,0,0,1,0,7
PPG,2,20109,805910536,130,171076,190361,189779.453,581.547,-104.297,0,0,0,0,83.33,83.33,2,1,16,nan,4,1,53,1,1,13,13,0,0,0,806179297,0.04565,-0.00806,0.96021,0.96132,-0.00745,0.00212,-0.00114,0.00783,0.96132,0.00411,0.00783,3,12142,0,1333,0.17655,0.09050,0.51261,96,1,97.185,83,1,3,4304,185610,0,0,0.000,12.157,13.384,0,0.000,16.081,16.111,0,0,1,0,7
PPG,2,20110,805950536,129,171071,190368,189785.344,582.656,-111.438,0,0,0,0,83.33,83.33,2,1,16,nan,4,1,53,1,1,14,14,0,0,0,806218269,0.03979,-0.00928,0.95801,0.95888,-0.00798,0.00185,-0.00061,0.00822,0.95888,0.00248,0.00822,3,12125,0,1333,0.17655,0.09050,0.51261,96,1,97.185,83,1,3,4296,185610,0,0,0.000,12.157,13.384,0,0.000,16.081,16.111,0,0,1,0,7
PPG,2,20111,805990536,131,171067,190337,189790.859,546.141,-105.453,0,0,0,0,83.33,83.33,2,1,16,nan,4,1,53,1,1,15,15,0,0,0,806257267,0.04639,-0.00610,0.95557,0.95671,-0.00798,0.00132,-0.00034,0.00810,0.95810,0.00158,0.00846,3,12121,0,1333,0.17655,0.09050,0.51261,96,1,97.185,83,1,3,2597,185610,0,0,0.000,12.157,13.384,0,0.000,16.081,16.111,0,0,1,0,7
PPG,2,20112,806030536,130,171044,190317,189796.125,520.875,-89.328,1,0,0,0,83.33,83.33,2,1,16,nan,4,1,53,1,1,16,16,0,0,0,806298864,0.04272,-0.00684,0.96094,0.96191,-0.00692,0.00265,-0.00007,0.00741,0.96191,0.00589,0.00810,3,12124,0,1333,0.17655,0.09050,0.51261,96,1,97.185,83,1,3,4300,185610,0,0,0.000,12.157,13.384,0,45.797,16.081,16.111,1,0,1,0,7
PPG,2,20113,806070536,152,171030,190333,189801.500,531.500,-74.938,0,0,1,760,78.95,78.95,2,1,16,nan,4,1,53,1,1,17,17,0,0,0,806337851,0.04150,-0.00659,0.95752,0.95844,-0.00718,0.00318,-0.00087,0.00791,0.96038,0.00920,0.00895,3,12132,0,1333,0.17655,0.09050,0.51261,96,1,97.185,83,1,3,2598,185610,0,0,34.500,12.157,13.384,1,0.000,16.081,16.111,0,1,1,0,7
PPG,2,20114,806110536,130,171079,190406,189807.547,598.453,-58.375,0,0,0,0,78.95,78.95,2,1,16,nan,4,1,53,1,1,18,18,0,0,0,806379546,0.04126,-0.00293,0.96094,0.96183,-0.00852,0.00185,-0.00114,0.00879,0.96351,0.00318,0.00926,3,12137,0,1333,0.17655,0.09050,0.51261,96,1,97.185,83,1,3,4294,185610,0,0,0.000,11.744,12.286,0,0.000,15.445,14.722,0,0,1,0,7
PPG,2,20115,806150536,130,171119,190461,189814.078,646.922,-41.844,0,0,0,0,78.95,78.95,2,1,16,nan,4,1,53,1,1,19,19,0,0,0,806418505,0.04126,-0.00732,0.95898,0.95990,-0.00798,0.00238,-0.00034,0.00834,0.96044,0.00217,0.00863,3,12118,0,1333,0.17655,0.09050,0.51261,96,1,97.185,83,1,3,4295,185610,0,0,0.000,11.744,12.286,0,0.000,15.445,14.722,0,0,1,0,7
PPG,2,20116,806190536,132,171138,190491,189820.844,670.156,-26.625,0,0,0,0,78.95,78.95,2,1,16,nan,4,1,53,1,1,20,20,0,0,0,806457450,0.04199,-0.00439,0.95850,0.95943,-0.00852,0.00185,-0.00007,0.00871,0.95943,0.00352,0.00871,3,12115,0,1333,0.17655,0.09050,0.51261,96,1,97.185,83,1,3,2595,185610,0,0,0.000,11.744,12.286,0,0.000,15.445,14.722,0,0,1,0,7
PPG,2,20117,806230536,130,171152,190512,189827.750,684.250,-9.656,0,0,0,0,78.95,78.95,2,1,16,nan,4,1,53,1,1,21,21,0,0,0,806499017,0.03979,-0.00854,0.95630,0.95716,-0.00798,0.00238,-0.00114,0.00841,0.96368,0.00652,0.00841,3,12118,0,1333,0.17655,0.09050,0.51261,96,1,97.185,83,1,3,4294,185610,0,0,0.000,11.744,12.286,0,0.000,15.445,14.722,0,0,1,0,7
PPG,2,20118,806270536,129,171171,190526,189834.734,691.266,14.844,0,0,0,0,78.95,78.95,2,1,16,nan,4,1,53,1,1,22,22,0,0,0,806537967,0.04321,-0.00635,0.96021,0.96120,-0.00798,0.00345,-0.00061,0.00872,0.96120,0.00407,0.00872,3,12118,0,1333,0.17655,0.09050,0.51261,96,1,97.185,83,1,3,2594,185610,0,0,0.000,11.744,12.286,0,0.000,15.445,14.722,0,0,1,0,7
PPG,2,20119,806310536,509,171152,190529,189841.672,687.328,43.172,0,0,0,0,78.95,78.95,2,1,16,nan,4,1,53,1,1,23,23,0,0,0,806579547,0.04150,-0.00317,0.95679,0.95769,-0.00825,0.00292,-0.00087,0.00879,0.96274,0.00794,0.00879,3,12139,0,1333,0.13731,0.07813,0.56904,76,1,95.774,115,1,3,4295,185610,0,0,0.000,11.744,12.286,0,0.000,15.445,14.722,0,0,1,0,7
PPG,2,20120,806350536,178,171111,190485,189848.109,636.891,65.594,0,0,0,0,78.95,78.95,2,1,16,nan,4,1,53,1,1,24,24,0,0,0,806618924,0.04346,-0.00562,0.94751,0.94852,-0.00718,0.00345,-0.00034,0.00798,0.96172,0.00829,0.00798,3,12117,0,1333,0.13731,0.07813,0.56904,76,1,95.774,115,1,3,4297,185610,0,0,0.000,11.744,12.286,0,0.000,15.445,14.722,0,0,1,0,7
PPG,2,20121,806390536,130,171118,190508,189854.703,653.297,81.766,0,0,0,0,78.95,78.95,2,1,16,nan,4,1,53,1,1,25,25,0,0,0,806657921,0.04443,-0.00586,0.95508,0.95613,-0.00798,0.00158,-0.00087,0.00819,0.96164,0.01312,0.00819,3,12121,0,1333,0.13731,0.07813,0.56904,76,1,95.774,115,1,3,2594,185610,0,0,0.000,11.744,12.286,0,0.000,15.445,14.722,0,0,1,0,7
PPG,2,20122,806430536,129,171121,190521,189861.359,659.641,91.125,0,0,0,0,78.95,78.95,2,1,16,nan,4,1,53,1,1,26,26,0,0,0,806699530,0.04346,-0.00879,0.95850,0.95952,-0.00878,0.00292,0.00073,0.00928,0.96058,0.00396,0.00928,3,12113,0,1333,0.13731,0.07813,0.56904,76,1,95.774,115,1,3,4298,185610,0,0,0.000,11.744,12.286,0,0.000,15.445,14.722,0,0,1,0,7
PPG,2,20123,806470536,150,171108,190476,189867.500,608.500,90.938,0,0,0,0,78.95,78.95,2,1,16,nan,4,1,53,1,1,27,27,0,0,0,806738474,0.04297,-0.00708,0.96509,0.96607,-0.00772,0.00158,-0.00034,0.00788,0.96607,0.00708,0.00872,3,12118,0,1333,0.13731,0.07813,0.56904,76,1,95.774,115,1,3,4301,185610,0,0,0.000,11.744,12.286,0,0.000,15.445,14.722,0,0,1,0,7
PPG,2,20124,806510536,130,171086,190400,189872.828,527.172,74.891,0,0,0,0,78.95,78.95,2,1,16,nan,4,1,53,1,1,28,28,0,0,0,806777534,0.04224,-0.00684,0.95728,0.95823,-0.00798,0.00238,-0.00087,0.00838,0.95823,0.01269,0.00841,3,12132,0,1333,0.13731,0.07813,0.56904,76,1,95.774,115,1,3,2598,185610,0,0,0.000,11.744,12.286,0,0.000,15.445,14.722,0,0,1,0,7
PPG,2,20125,806550536,134,171078,190395,189878.047,516.953,50.969,0,0,0,0,78.95,78.95,2,1,16,nan,4,1,53,1,1,29,29,0,0,0,806819143,0.04077,-0.00562,0.96094,0.96182,-0.00852,0.00132,-0.00061,0.00864,0.96320,0.00497,0.00873,3,12121,0,1333,0.13731,0.07813,0.56904,76,1,95.774,115,1,3,4297,185610,0,0,0.000,11.744,12.286,0,0.000,15.445,14.722,0,0,1,0,7
PPG,2,20126,806590536,129,171096,190442,189883.688,558.312,31.703,0,0,0,0,78.95,78.95,2,1,16,nan,4,1,53,1,1,30,30,0,0,0,806858109,0.04395,-0.00488,0.95581,0.95683,-0.00745,0.00158,-0.00034,0.00762,0.95696,0.00486,0.00915,3,12128,0,1333,0.13731,0.07813,0.56904,76,1,95.774,115,1,3,2602,185610,0,0,0.000,11.744,12.286,0,0.000,15.445,14.722,0,0,1,0,7
PPG,2,20127,806630536,134,171114,190491,189889.766,601.234,25.266,0,1,0,0,78.95,78.95,2,1,16,nan,4,1,53,1,1,31,31,0,0,0,806899854,0.04272,-0.00537,0.95215,0.95312,-0.00878,0.00292,-0.00061,0.00927,0.96266,0.00954,0.00927,3,12174,0,1333,0.13731,0.07813,0.56904,76,1,95.774,115,1,3,4301,185610,0,0,0.000,11.744,12.286,0,0.000,15.445,14.722,0,0,1,0,7
PPG,2,20128,806670536,129,171137,190543,189896.297,646.703,21.766,0,0,0,0,78.95,78.95,2,1,16,nan,4,1,53,1,1,0,0,0,0,0,806938828,0.04346,-0.00464,0.96118,0.96217,-0.00798,0.00238,-0.00034,0.00834,0.96217,0.00774,0.00892,3,12116,0,1333,0.13731,0.07813,0.56904,76,1,95.774,115,1,3,4302,185610,0,0,0.000,11.744,12.286,0,0.000,15.445,14.722,0,0,1,0,7
PPG,2,20129,806710536,130,171154,190573,189903.062,669.938,18.578,0,0,0,0,78.95,78.95,2,1,16,nan,4,1,53,1,1,1,1,0,0,0,806977786,0.04077,-0.00586,0.95581,0.95670,-0.00718,0.00292,-0.00007,0.00775,0.95670,0.00677,0.00775,3,12122,0,1333,0.13731,0.07813,0.56904,76,1,95.774,115,1,3,2622,185610,0,0,0.000,11.744,12.286,0,0.000,15.445,14.722,0,0,1,0,7
PPG,2,20130,806750536,149,171146,190560,189909.625,650.375,20.984,1,0,1,700,78.95,78.95,2,1,16,nan,4,1,53,1,1,2,2,0,0,0,807019495,0.03906,-0.00562,0.95239,0.95321,-0.00718,0.00265,0.00019,0.00766,0.96044,0.00374,0.00766,3,12114,0,1333,0.13731,0.07813,0.56904,76,1,95.774,115,1,3,4295,185610,0,0,123.938,11.744,12.286,1,202.562,15.445,14.722,1,1,1,0,7
PPG,2,20131,806790536,129,171118,190547,189916.000,631.000,31.484,0,0,0,0,78.95,78.95,2,1,16,nan,4,1,53,1,1,3,3,0,0,0,807058559,0.03931,-0.01050,0.95581,0.95668,-0.00745,0.00185,0.00019,0.00768,0.96354,0.00686,0.00779,3,12111,0,1333,0.13731,0.07813,0.56904,76,1,95.774,115,1,3,4294,185610,0,0,0.000,11.942,12.813,0,0.000,15.868,15.646,0,0,1,0,7
PPG,2,20132,806830536,141,171138,190544,189922.281,621.719,41.422,0,0,0,0,78.95,78.95,2,1,16,nan,4,1,53,2,2,5,5,0,0,0,807158711,0.04053,-0.00830,0.95435,0.95524,-0.00798,0.00238,-0.00061,0.00835,0.96038,0.00392,0.00835,3,61235,0,1339,0.13731,0.07813,0.56904,76,1,95.774,115,1,3,61191,185610,0,0,0.000,11.942,12.813,0,0.000,15.868,15.646,0,0,1,0,7
PPG,2,20133,806870536,40,171138,190566,189928.719,637.281,47.484,0,0,0,0,78.95,78.95,2,1,16,nan,4,1,53,2,2,5,5,0,0,0,807158711,0.04053,-0.00830,0.95435,0.95524,-0.00798,0.00238,-0.00061,0.00835,0.00000,0.00000,0.00000,0,61235,0,1339,0.13731,0.07813,0.56904,76,1,95.774,115,1,3,61191,185610,0,0,0.000,11.942,12.813,0,0.000,15.868,15.646,0,0,1,0,7
PPG,2,20134,806910536,132,171156,190622,189935.656,686.344,55.406,0,0,0,0,78.95,78.95,2,1,16,nan,4,1,53,1,1,6,6,0,0,0,807184737,0.03955,-0.00659,0.95679,0.95763,-0.00852,0.00185,-0.00061,0.00874,0.95763,0.00173,0.00893,2,12563,0,1339,0.13731,0.07813,0.56904,76,1,95.774,115,1,3,2608,185610,0,0,0.000,11.942,12.813,0,0.000,15.868,15.646,0,0,1,0,7
PPG,2,20135,806950536,128,171165,190677,189943.062,733.938,63.734,0,0,0,0,78.95,78.95,2,1,16,nan,4,1,53,1,1,7,7,0,0,0,807221534,0.03979,-0.00757,0.95801,0.95886,-0.00772,0.00105,0.00019,0.00779,0.96039,0.00276,0.00893,3,12328,0,1339,0.13731,0.07813,0.56904,76,1,95.774,115,1,3,2663,185610,0,0,0.000,11.942,12.813,0,0.000,15.868,15.646,0,0,1,0,7
PPG,2,20136,806990536,131,171185,190683,189950.469,732.531,69.859,0,0,0,0,78.95,78.95,2,1,16,nan,4,1,53,1,1,8,8,0,0,0,807258067,0.03809,-0.00537,0.95630,0.95707,-0.00852,0.00105,-0.00087,0.00862,0.96397,0.01070,0.00889,3,12177,0,1339,0.13731,0.07813,0.56904,76,1,95.774,115,1,3,2601,185610,0,0,0.000,11.942,12.813,0,0.000,15.868,15.646,0,0,1,0,7
PPG,2,20137,807030536,129,171154,190669,189957.656,711.344,77.578,0,0,0,0,78.95,78.95,2,1,16,nan,4,1,53,1,1,9,9,0,0,0,807299636,0.04248,-0.00879,0.95630,0.95728,-0.00745,0.00185,-0.00114,0.00776,0.96646,0.00917,0.00828,3,12137,0,1339,0.13731,0.07813,0.56904,76,1,95.774,115,1,3,4295,185610,0,0,0.000,11.942,12.813,0,0.000,15.868,15.646,0,0,1,0,7
PPG,2,20138,807070536,130,171138,190650,189964.578,685.422,86.094,0,0,0,0,78.95,78.95,2,1,16,nan,4,1,53,1,1,10,10,0,0,0,807338707,0.04370,-0.00928,0.95825,0.95929,-0.00772,0.00185,-0.00034,0.00794,0.96013,0.00347,0.00794,3,12119,0,1339,0.13731,0.07813,0.56904,76,1,95.774,115,1,3,4304,185610,0,0,0.000,11.942,12.813,0,0.000,15.868,15.646,0,0,1,0,7
PPG,2,20139,807110536,129,171134,190663,189971.562,691.438,96.391,0,0,0,0,78.95,78.95,2,1,16,nan,4,1,53,1,1,11,11,0,0,0,807377867,0.04272,-0.00464,0.96240,0.96336,-0.00852,0.00132,-0.00034,0.00862,0.96336,0.01023,0.00905,3,12127,0,1339,0.13731,0.07813,0.56904,76,1,95.774,115,1,3,2598,185610,0,0,0.000,11.942,12.813,0,0.000,15.868,15.646,0,0,1,0,7
PPG,2,20140,807150536,138,171155,190675,189978.594,696.406,102.469,0,0,0,0,78.95,78.95,2,1,16,nan,4,1,53,1,1,12,12,0,0,0,807419960,0.04443,-0.00439,0.95264,0.95368,-0.00798,0.00265,-0.00114,0.00849,0.96367,0.00838,0.00849,3,12254,0,1339,0.13731,0.07813,0.56904,76,1,95.774,115,1,3,4334,185610,0,0,0.000,11.942,12.813,0,0.000,15.868,15.646,0,0,1,0,7
PPG,2,20141,807190536,150,171121,190623,189985.031,637.969,96.859,0,0,0,0,78.95,78.95,2,1,16,nan,4,1,53,1,1,13,13,0,0,0,807459320,0.04370,-0.00610,0.95923,0.96024,-0.00665,0.00132,-0.00007,0.00678,0.96024,0.00700,0.00867,3,12303,0,1339,0.13731,0.07813,0.56904,76,1,95.774,115,1,3,4351,185610,0,0,0.000,11.942,12.813,0,0.000,15.868,15.646,0,0,1,0,7
PPG,2,20142,807230536,129,171090,190513,189990.312,522.688,73.828,0,0,0,0,78.95,78.95,2,1,16,nan,4,1,53,1,1,14,14,0,0,0,807498702,0.04370,-0.00610,0.95337,0.95439,-0.00798,0.00132,0.00019,0.00809,0.96861,0.01423,0.00809,3,12299,0,1339,0.13731,0.07813,0.56904,76,1,95.774,115,1,3,4332,185610,0,0,0.000,11.942,12.813,0,0.000,15.868,15.646,0,0,1,0,7
PPG,2,20143,807270536,137,171082,190468,189995.094,472.906,43.516,0,0,0,0,78.95,78.95,2,1,16,nan,4,1,53,1,1,15,15,0,0,0,807538124,0.04395,-0.00806,0.95557,0.95661,-0.00772,0.00158,-0.00034,0.00788,0.96337,0.00749,0.00988,3,12287,0,1339,0.13731,0.07813,0.56904,76,1,95.774,115,1,3,2648,185610,0,0,0.000,11.942,12.813,0,0.000,15.868,15.646,0,0,1,0,7
PPG,2,20144,807310536,518,171064,190466,189999.797,466.203,11.219,0,0,0,0,78.95,78.95,2,1,16,nan,4,1,53,1,1,16,16,0,0,0,807580100,0.04102,-0.00635,0.95557,0.95647,-0.00772,0.00212,0.00019,0.00800,0.96000,0.00407,0.00846,3,12216,0,1339,0.09034,0.05933,0.65675,89,1,93.581,107,1,3,4347,185610,0,0,0.000,11.942,12.813,0,0.000,15.868,15.646,0,0,1,0,7
PPG,2,20145,807350536,192,171093,190531,190005.109,525.891,-12.578,0,0,0,0,78.95,78.95,2,1,16,nan,4,1,53,1,1,17,17,0,0,0,807619896,0.04419,-0.00659,0.95996,0.96100,-0.00772,0.00185,-0.00034,0.00794,0.96100,0.00384,0.00838,3,12250,0,1339,0.09034,0.05933,0.65675,89,1,93.581,107,1,3,4335,185610,0,0,0.000,11.942,12.813,0,0.000,15.868,15.646,0,0,1,0,7
PPG,2,20146,807390536,130,171117,190570,190010.766,559.234,-32.281,0,0,0,0,78.95,78.95,2,1,16,nan,4,1,53,1,1,18,18,0,0,0,807659233,0.04541,-0.00708,0.95874,0.95984,-0.00931,0.00185,-0.00034,0.00950,0.95984,0.00523,0.00950,3,12251,0,1339,0.09034,0.05933,0.65675,89,1,93.581,107,1,3,4313,185610,0,0,0.000,11.942,12.813,0,0.000,15.868,15.646,0,0,1,0,7
PPG,2,20147,807430536,132,171114,190600,190016.656,583.344,-48.438,0,0,0,0,78.95,78.95,2,1,16,nan,4,1,53,1,1,19,19,0,0,0,807698494,0.04199,-0.00488,0.96118,0.96211,-0.00692,0.00238,0.00046,0.00733,0.96211,0.00556,0.00893,3,12247,0,1339,0.09034,0.05933,0.65675,89,1,93.581,107,1,3,4350,185610,0,0,0.000,11.942,12.813,0,0.000,15.868,15.646,0,0,1,0,7
PPG,2,20148,807470536,165,171128,190617,190022.656,594.344,-52.984,1,0,1,720,78.95,78.95,2,1,16,nan,4,1,53,1,1,20,20,0,0,0,807737973,0.04028,-0.00537,0.94995,0.95082,-0.00798,0.00292,-0.00061,0.00852,0.96072,0.00691,0.00852,3,12198,0,1339,0.09034,0.05933,0.65675,89,1,93.581,107,1,3,2618,185610,0,0,21.828,11.942,12.813,1,83.891,15.868,15.646,1,1,1,0,8
PPG,2,20149,807510536,135,171142,190619,190028.625,590.375,-40.156,0,0,0,0,78.95,78.95,2,1,16,nan,4,1,53,1,1,21,21,0,0,0,807780007,0.04688,-0.00513,0.95972,0.96087,-0.00772,0.00185,-0.00087,0.00798,0.96269,0.01187,0.00848,3,12234,0,1339,0.09034,0.05933,0.65675,89,1,93.581,107,1,3,4329,185610,0,0,0.000,11.478,11.575,0,0.000,15.496,14.835,0,0,1,0,8
PPG,2,20150,807550536,131,171140,190632,190034.656,597.344,-20.328,0,0,0,0,78.95,78.95,2,1,16,nan,4,1,53,1,1,22,22,0,0,0,807819407,0.04297,-0.00708,0.96265,0.96363,-0.00878,0.00318,-0.00034,0.00935,0.96380,0.01088,0.00935,3,12282,0,1339,0.09034,0.05933,0.65675,89,1,93.581,107,1,3,4327,185610,0,0,0.000,11.478,11.575,0,0.000,15.496,14.835,0,0,1,0,8
PPG,2,20151,807590536,129,171172,190693,190041.234,651.766,4.812,0,0,0,0,78.95,78.95,2,1,16,nan,4,1,53,1,1,23,23,0,0,0,807858692,0.04224,-0.00488,0.95679,0.95773,-0.00772,0.00025,0.00046,0.00773,0.96135,0.00303,0.00850,3,12234,0,1339,0.09034,0.05933,0.65675,89,1,93.581,107,1,3,4324,185610,0,0,0.000,11.478,11.575,0,0.000,15.496,14.835,0,0,1,0,8
PPG,2,20152,807630536,132,171177,190708,190047.906,660.094,21.891,0,0,0,0,78.95,78.95,2,1,16,nan,4,1,53,1,1,24,24,0,0,0,807897969,0.04126,-0.00659,0.95776,0.95867,-0.00798,0.00158,-0.00087,0.00819,0.95867,0.00275,0.00878,3,12212,0,1339,0.09034,0.05933,0.65675,89,1,93.581,107,1,3,2624,185610,0,0,0.000,11.478,11.575,0,0.000,15.496,14.835,0,0,1,0,8
PPG,2,20153,807670536,135,171183,190718,190054.609,663.391,35.438,0,0,0,0,78.95,78.95,2,1,16,nan,4,1,53,1,1,25,25,0,0,0,807939922,0.04517,-0.00610,0.95557,0.95665,-0.00772,0.00212,-0.00141,0.00812,0.95665,0.00483,0.00812,3,12242,0,1339,0.09034,0.05933,0.65675,89,1,93.581,107,1,3,4330,185610,0,0,0.000,11.478,11.575,0,0.000,15.496,14.835,0,0,1,0,8
PPG,2,20154,807710536,132,171175,190727,190061.328,665.672,48.328,0,0,0,0,78.95,78.95,2,1,16,nan,4,1,53,1,1,26,26,0,0,0,807979221,0.03857,-0.00610,0.96265,0.96344,-0.00772,0.00265,-0.00007,0.00816,0.96344,0.00382,0.00830,3,12231,0,1339,0.09034,0.05933,0.65675,89,1,93.581,107,1,3,4326,185610,0,0,0.000,11.478,11.575,0,0.000,15.496,14.835,0,0,1,0,8
PPG,2,20155,807750536,132,171194,190771,190068.422,702.578,65.625,0,0,0,0,78.95,78.95,2,1,16,nan,4,1,53,1,1,27,27,0,0,0,808018540,0.04248,-0.00269,0.95776,0.95871,-0.00878,0.00158,-0.00087,0.00897,0.96277,0.00406,0.00904,3,12270,0,1339,0.09034,0.05933,0.65675,89,1,93.581,107,1,3,2597,185610,0,0,0.000,11.478,11.575,0,0.000,15.496,14.835,0,0,1,0,8
PPG,2,20156,807790536,130,171206,190793,190075.672,717.328,84.984,0,0,0,0,78.95,78.95,2,1,16,nan,4,1,53,1,1,28,28,0,0,0,808060118,0.04565,-0.00391,0.95630,0.95740,-0.00745,0.00158,0.00046,0.00763,0.96532,0.00661,0.00805,3,12161,0,1339,0.09034,0.05933,0.65675,89,1,93.581,107,1,3,4351,185610,0,0,0.000,11.478,11.575,0,0.000,15.496,14.835,0,0,1,0,8
PPG,2,20157,807830536,155,171206,190807,190082.984,724.016,103.078,0,0,0,0,78.95,78.95,2,1,16,nan,4,1,53,1,1,29,29,0,0,0,808099054,0.04541,-0.00977,0.95947,0.96060,-0.00852,0.00132,-0.00087,0.00866,0.96060,0.00226,0.00866,2,24141,0,1340,0.09034,0.05933,0.65675,89,1,93.581,107,1,3,4384,185610,0,0,0.000,11.478,11.575,0,0.000,15.496,14.835,0,0,1,0,8
PPG,2,20158,807870536,133,171217,190815,190090.297,724.703,112.266,0,0,0,0,78.95,78.95,2,1,16,nan,4,1,53,1,1,30,30,0,0,0,808138176,0.04175,-0.00610,0.95923,0.96016,-0.00718,0.00238,-0.00034,0.00758,0.96359,0.00679,0.00845,3,12156,0,1340,0.09034,0.05933,0.65675,89,1,93.581,107,1,3,2600,185610,0,0,0.000,11.478,11.575,0,0.000,15.496,14.835,0,0,1,0,8
PPG,2,20159,807910536,131,171227,190830,190097.688,732.312,121.344,0,0,0,0,78.95,78.95,2,1,16,nan,4,1,53,1,1,31,31,0,0,0,808179786,0.04443,-0.00659,0.96289,0.96394,-0.00798,0.00292,-0.00034,0.00851,0.96394,0.00498,0.00851,3,12119,0,1340,0.09034,0.05933,0.65675,89,1,93.581,107,1,3,4299,185610,0,0,0.000,11.478,11.575,0,0.000,15.496,14.835,0,0,1,0,8
PPG,2,20160,807950536,179,171183,190761,190104.328,656.672,123.188,0,0,0,0,78.95,78.95,2,1,16,nan,4,1,53,1,1,0,0,0,0,0,808218924,0.04541,-0.00684,0.95557,0.95667,-0.00638,0.00185,-0.00061,0.00667,0.95667,0.00773,0.00895,3,12164,0,1340,0.09034,0.05933,0.65675,89,1,93.581,107,1,3,4306,185610,0,0,0.000,11.478,11.575,0,0.000,15.496,14.835,0,0,1,0,8
PPG,2,20161,807990536,142,171124,190620,190109.484,510.516,108.047,0,0,0,0,78.95,78.95,2,1,16,nan,4,1,53,1,1,1,1,0,0,0,808258068,0.03955,-0.00586,0.95728,0.95811,-0.00878,0.00292,-0.00141,0.00936,0.95811,0.00444,0.00936,3,12151,0,1340,0.09034,0.05933,0.65675,89,1,93.581,107,1,3,2602,185610,0,0,0.000,11.478,11.575,0,0.000,15.496,14.835,0,0,1,0,8
PPG,2,20162,808030536,129,171118,190579,190114.172,464.828,77.328,0,0,0,0,78.95,78.95,2,1,16,nan,4,1,53,1,1,2,2,0,0,0,808299699,0.04272,-0.00635,0.95874,0.95971,-0.00718,0.00132,-0.00007,0.00730,0.96195,0.01011,0.00810,3,12127,0,1340,0.09034,0.05933,0.65675,89,1,93.581,107,1,3,4300,185610,0,0,0.000,11.478,11.575,0,0.000,15.496,14.835,0,0,1,0,8
PPG,2,20163,808070536,128,171127,190600,190119.031,480.969,43.156,0,0,0,0,78.95,78.95,2,1,16,nan,4,1,53,1,1,3,3,0,0,0,808338694,0.04199,-0.00635,0.96069,0.96163,-0.00718,0.00265,0.00099,0.00772,0.96163,0.00573,0.00800,3,12116,0,1340,0.09034,0.05933,0.65675,89,1,93.581,107,1,3,2606,185610,0,0,0.000,11.478,11.575,0,0.000,15.496,14.835,0,0,1,0,8
PPG,2,20164,808110536,129,171126,190631,190124.156,506.844,9.766,0,0,0,0,78.95,78.95,2,1,16,nan,4,1,53,1,1,4,4,0,0,0,808380269,0.04175,-0.00220,0.95337,0.95429,-0.00798,0.00185,-0.00061,0.00822,0.95753,0.00410,0.00822,3,12124,0,1340,0.09034,0.05933,0.65675,89,1,93.581,107,1,3,4296,185610,0,0,0.000,11.478,11.575,0,0.000,15.496,14.835,0,0,1,0,8
PPG,2,20165,808150536,137,171103,190617,190129.078,487.922,-22.828,0,0,0,0,78.95,78.95,2,1,16,nan,4,1,53,1,1,5,5,0,0,0,808419244,0.04590,-0.00537,0.95654,0.95766,-0.00878,0.00132,-0.00034,0.00889,0.96237,0.00808,0.00889,3,12139,0,1340,0.09034,0.05933,0.65675,89,1,93.581,107,1,3,4298,185610,0,0,0.000,11.478,11.575,0,0.000,15.496,14.835,0,0,1,0,8
PPG,2,20166,808190536,129,171121,190653,190134.312,518.688,-52.266,0,0,0,0,78.95,78.95,2,1,16,nan,4,1,53,1,1,6,6,0,0,0,808458245,0.04248,-0.00757,0.95557,0.95654,-0.00931,0.00052,0.00019,0.00933,0.95900,0.00562,0.00943,3,12130,0,1340,0.09034,0.05933,0.65675,89,1,93.581,107,1,3,2601,185610,0,0,0.000,11.478,11.575,0,0.000,15.496,14.835,0,0,1,0,8
PPG,2,20167,808230536,131,171114,190635,190139.312,495.688,-72.016,0,0,0,0,78.95,78.95,2,1,16,nan,4,1,53,1,1,7,7,0,0,0,808499868,0.04614,-0.00781,0.95776,0.95891,-0.00772,0.00238,-0.00061,0.00810,0.96282,0.00391,0.00810,3,12122,0,1340,0.09034,0.05933,0.65675,89,1,93.581,107,1,3,4296,185610,0,0,83.656,11.478,11.575,1,0.000,15.496,14.835,0,0,1,0,8
PPG,2,20168,808270536,172,171122,190639,190144.312,494.688,-70.406,1,0,1,780,78.95,78.95,2,1,16,nan,4,1,53,1,1,8,8,0,0,0,808538964,0.04126,-0.00879,0.96045,0.96138,-0.00692,0.00238,-0.00061,0.00734,0.96138,0.00470,0.00842,3,12140,0,1340,0.09034,0.05933,0.65675,89,1,93.581,107,1,3,4299,185610,0,0,0.000,11.478,11.575,0,176.172,15.496,14.835,1,1,1,0,8
PPG,2,20169,808310536,519,171119,190660,190149.469,510.531,-60.875,0,0,0,0,78.95,78.95,2,1,16,nan,4,1,53,1,1,9,9,0,0,0,808578116,0.04297,-0.00757,0.96240,0.96339,-0.00825,0.00185,0.00046,0.00847,0.96339,0.00706,0.00913,3,12127,0,1340,0.07004,0.05393,0.76998,93,1,90.751,136,1,3,2597,185610,0,0,0.000,11.457,11.521,0,0.000,15.748,15.385,0,0,1,0,8
PPG,2,20170,808350536,251,171081,190643,190154.406,488.594,-55.281,0,0,0,0,78.95,78.95,2,1,16,nan,4,1,53,1,1,10,10,0,0,0,808620137,0.03711,-0.00488,0.95801,0.95874,-0.00745,0.00345,-0.00034,0.00822,0.95934,0.00461,0.00829,3,12122,0,1340,0.07004,0.05393,0.76998,93,1,90.751,136,1,3,4328,185610,0,0,0.000,11.088,12.149,0,0.000,15.748,15.385,0,0,1,0,8
PPG,2,20171,808390536,128,171096,190669,190159.547,509.453,-48.656,0,0,0,0,78.95,78.95,2,1,16,nan,4,1,53,1,1,11,11,0,0,0,808659417,0.04321,-0.00586,0.95923,0.96022,-0.00772,0.00212,0.00019,0.00800,0.96100,0.00292,0.00843,3,12120,0,1340,0.07004,0.05393,0.76998,93,1,90.751,136,1,3,4299,185610,0,0,0.000,11.088,12.149,0,0.000,15.748,15.385,0,0,1,0,8
PPG,2,20172,808430536,130,171135,190695,190164.906,530.094,-36.875,0,0,0,0,78.95,78.95,2,1,16,nan,4,1,53,1,1,12,12,0,0,0,808698357,0.04248,-0.00830,0.95459,0.95557,-0.00638,0.00238,-0.00114,0.00691,0.95632,0.00390,0.00743,3,12112,0,1340,0.07004,0.05393,0.76998,93,1,90.751,136,1,3,2598,185610,0,0,0.000,11.088,12.149,0,0.000,15.748,15.385,0,0,1,0,8
PPG,2,20173,808470536,129,171121,190705,190170.312,534.688,-28.781,0,0,0,0,78.95,78.95,2,1,16,nan,4,1,53,1,1,13,13,0,0,0,808739932,0.04370,-0.00903,0.95972,0.96075,-0.00745,0.00318,-0.00087,0.00815,0.96127,0.00570,0.00815,3,12135,0,1340,0.07004,0.05393,0.76998,93,1,90.751,136,1,3,4298,185610,0,0,0.000,11.088,12.149,0,0.000,15.748,15.385,0,0,1,0,8
PPG,2,20174,808510536,130,171116,190722,190175.828,546.172,-16.109,0,0,0,0,78.95,78.95,2,1,16,nan,4,1,53,1,1,14,14,0,0,0,808778960,0.04004,-0.00610,0.95532,0.95618,-0.00745,0.00212,-0.00061,0.00777,0.96265,0.00647,0.00780,3,12111,0,1340,0.07004,0.05393,0.76998,93,1,90.751,136,1,3,2595,185610,0,0,0.000,11.088,12.149,0,0.000,15.748,15.385,0,0,1,0,8
PPG,2,20175,808550536,128,171182,190815,190182.219,632.781,6.828,0,0,0,0,78.95,78.95,2,1,16,nan,4,1,53,1,1,15,15,0,0,0,808820508,0.04248,-0.00854,0.95776,0.95874,-0.00745,0.00158,-0.00087,0.00767,0.95877,0.00259,0.00904,3,12113,0,1340,0.07004,0.05393,0.76998,93,1,90.751,136,1,3,4295,185610,0,0,0.000,11.088,12.149,0,0.000,15.748,15.385,0,0,1,0,8
PPG,2,20176,808590536,129,171207,190857,190188.969,668.031,31.766,0,0,0,0,78.95,78.95,2,1,16,nan,4,1,53,1,1,16,16,0,0,0,808859530,0.04248,-0.00586,0.95068,0.95165,-0.00825,0.00132,0.00019,0.00836,0.96287,0.01004,0.00836,3,12113,0,1340,0.07004,0.05393,0.76998,93,1,90.751,136,1,3,4297,185610,0,0,0.000,11.088,12.149,0,0.000,15.748,15.385,0,0,1,0,8
PPG,2,20177,808630536,131,171232,190893,190196.016,696.984,63.188,0,0,0,0,78.95,78.95,2,1,16,nan,4,1,53,1,1,17,17,0,0,0,808898476,0.04370,-0.00781,0.95288,0.95391,-0.00772,0.00238,-0.00061,0.00810,0.96361,0.01196,0.00919,3,12114,0,1340,0.07004,0.05393,0.76998,93,1,90.751,136,1,3,2598,185610,0,0,0.000,11.088,12.149,0,0.000,15.748,15.385,0,0,1,0,8
PPG,2,20178,808670536,134,171229,190874,190202.797,671.203,89.516,0,0,0,0,78.95,78.95,2,1,16,nan,4,1,53,1,1,18,18,0,0,0,808940136,0.04150,-0.00513,0.96021,0.96112,-0.00825,0.00212,-0.00007,0.00852,0.96112,0.00436,0.00852,3,12170,0,1340,0.07004,0.05393,0.76998,93,1,90.751,136,1,3,4299,185610,0,0,0.000,11.088,12.149,0,0.000,15.748,15.385,0,0,1,0,8
PPG,2,20179,808710536,143,171229,190880,190209.562,670.438,113.453,0,0,0,0,78.95,78.95,2,1,16,nan,4,1,53,1,1,19,19,0,0,0,808979135,0.04272,-0.00830,0.96387,0.96485,-0.00745,0.00158,-0.00061,0.00764,0.96485,0.00967,0.00841,3,12132,0,1340,0.07004,0.05393,0.76998,93,1,90.751,136,1,3,4300,185610,0,0,0.000,11.088,12.149,0,0.000,15.748,15.385,0,0,1,0,8
PPG,2,20180,808750536,131,171197,190851,190215.984,635.016,129.812,0,0,0,0,78.95,78.95,2,1,16,nan,4,1,53,1,1,20,20,0,0,0,809018183,0.04150,-0.00513,0.96021,0.96112,-0.00718,0.00185,0.00019,0.00742,0.96257,0.00697,0.00787,3,12110,0,1340,0.07004,0.05393,0.76998,93,1,90.751,136,1,3,2604,185610,0,0,0.000,11.088,12.149,0,0.000,15.748,15.385,0,0,1,0,8
PPG,2,20181,808790536,145,171150,190754,190221.359,532.641,127.688,0,0,0,0,78.95,78.95,2,1,16,nan,4,1,53,1,1,21,21,0,0,0,809059842,0.03906,-0.00732,0.96094,0.96176,-0.00692,0.00158,-0.00007,0.00710,0.96176,0.00403,0.00829,3,12123,0,1340,0.07004,0.05393,0.76998,93,1,90.751,136,1,3,4310,185610,0,0,0.000,11.088,12.149,0,0.000,15.748,15.385,0,0,1,0,8
PPG,2,20182,808830536,152,171142,190731,190226.453,504.547,108.078,0,0,0,0,78.95,78.95,2,1,16,nan,4,1,53,1,1,22,22,0,0,0,809098669,0.04102,-0.00439,0.96362,0.96451,-0.00852,0.00158,-0.00007,0.00866,0.96451,0.00413,0.00866,2,24078,0,1341,0.07004,0.05393,0.76998,93,1,90.751,136,1,3,2605,185610,0,0,0.000,11.088,12.149,0,0.000,15.748,15.385,0,0,1,0,8
PPG,2,20183,808870536,132,171179,190786,190232.047,553.953,88.641,0,0,0,0,78.95,78.95,2,1,16,nan,4,1,53,1,1,23,23,0,0,0,809140387,0.04175,-0.00488,0.96289,0.96381,-0.00798,0.00318,-0.00061,0.00862,0.96381,0.00867,0.00862,3,12142,0,1341,0.07004,0.05393,0.76998,93,1,90.751,136,1,3,4327,185610,0,0,0.000,11.088,12.149,0,0.000,15.748,15.385,0,0,1,0,8
PPG,2,20184,808910536,132,171157,190788,190237.609,550.391,65.797,0,0,0,0,78.95,78.95,2,1,16,nan,4,1,53,1,1,24,24,0,0,0,809179380,0.04419,-0.00781,0.95532,0.95638,-0.00878,0.00212,-0.00007,0.00903,0.96031,0.00394,0.00903,3,12118,0,1341,0.07004,0.05393,0.76998,93,1,90.751,136,1,3,4302,185610,0,0,0.000,11.088,12.149,0,0.000,15.748,15.385,0,0,1,0,8
PPG,2,20185,808950536,131,171116,190769,190242.922,526.078,43.188,0,0,0,0,78.95,78.95,2,1,16,nan,4,1,53,1,1,25,25,0,0,0,809218332,0.04175,-0.00879,0.95874,0.95969,-0.00852,0.00158,0.00046,0.00867,0.96206,0.00362,0.00912,3,12115,0,1341,0.07004,0.05393,0.76998,93,1,90.751,136,1,3,2601,185610,0,0,0.000,11.088,12.149,0,0.000,15.748,15.385,0,0,1,0,8
PPG,2,20186,808990536,132,171101,190757,190248.062,508.938,20.422,0,0,0,0,78.95,78.95,2,1,16,nan,4,1,53,1,1,26,26,0,0,0,809260297,0.03931,-0.00854,0.95728,0.95812,-0.00772,0.00132,-0.00061,0.00785,0.96065,0.00565,0.00810,3,12345,0,1341,0.07004,0.05393,0.76998,93,1,90.751,136,1,3,4379,185610,0,0,0.000,11.088,12.149,0,0.000,15.748,15.385,0,0,1,0,8
PPG,2,20187,809030536,128,171125,190783,190253.406,529.594,3.312,0,0,0,0,78.95,78.95,2,1,16,nan,4,1,53,1,1,27,27,0,0,0,809299434,0.04321,-0.00488,0.96094,0.96192,-0.00798,0.00158,-0.00007,0.00814,0.96192,0.00449,0.00843,3,12131,0,1341,0.07004,0.05393,0.76998,93,1,90.751,136,1,3,4374,185610,0,0,0.000,11.088,12.149,0,0.000,15.748,15.385,0,0,1,0,8
PPG,2,20188,809070536,134,171113,190782,190258.688,523.312,0.156,1,0,0,0,78.95,78.95,2,1,16,nan,4,1,53,1,1,28,28,0,0,0,809338466,0.04102,-0.00244,0.95825,0.95913,-0.00798,0.00185,-0.00087,0.00824,0.96259,0.00346,0.00911,3,12113,0,1341,0.07004,0.05393,0.76998,93,1,90.751,136,1,3,2611,185610,0,0,0.000,11.088,12.149,0,201.828,15.748,15.385,1,0,1,0,8
PPG,2,20189,809110536,151,171147,190815,190264.250,550.750,4.406,0,0,1,840,78.95,78.95,2,1,16,nan,4,1,53,1,1,29,29,0,0,0,809380285,0.04053,-0.00317,0.95557,0.95643,-0.00772,0.00132,-0.00007,0.00783,0.96307,0.00808,0.00796,3,12119,0,1341,0.07004,0.05393,0.76998,93,1,90.751,136,1,3,4299,185610,0,0,100.422,11.088,12.149,1,0.000,15.748,15.385,0,1,1,0,8
PPG,2,20190,809150536,147,171156,190854,190270.141,583.859,3.578,0,0,0,0,78.95,78.95,2,1,16,nan,4,1,53,1,1,30,30,0,0,0,809419437,0.04028,-0.00781,0.95850,0.95937,-0.00905,0.00158,-0.00087,0.00923,0.95937,0.00405,0.00923,3,12115,0,1341,0.07004,0.05393,0.76998,93,1,90.751,136,1,3,4297,185610,0,0,0.000,11.175,12.394,0,0.000,15.662,17.134,0,0,1,0,8
PPG,2,20191,809190536,129,171136,190845,190275.891,569.109,2.922,0,0,0,0,78.95,78.95,2,1,16,nan,4,1,53,1,1,31,31,0,0,0,809458745,0.04443,-0.00513,0.96118,0.96222,-0.00772,0.00238,0.00073,0.00811,0.96222,0.00648,0.00836,3,12202,0,1341,0.07004,0.05393,0.76998,93,1,90.751,136,1,3,2632,185610,0,0,0.000,11.175,12.394,0,0.000,15.662,17.134,0,0,1,0,8
PPG,2,20192,809230536,130,171138,190849,190281.625,567.375,6.641,0,0,0,0,78.95,78.95,2,1,16,nan,4,1,53,1,1,0,0,0,0,0,809500776,0.04541,-0.00586,0.95117,0.95227,-0.00825,0.00185,-0.00087,0.00850,0.95939,0.00698,0.00952,3,12316,0,1341,0.07004,0.05393,0.76998,93,1,90.751,136,1,3,4345,185610,0,0,0.000,11.175,12.394,0,0.000,15.662,17.134,0,0,1,0,8
PPG,2,20193,809270536,137,171138,190873,190287.531,585.469,14.812,0,0,0,0,78.95,78.95,2,1,16,nan,4,1,53,1,1,1,1,0,0,0,809540069,0.04126,-0.00708,0.95703,0.95795,-0.00905,0.00212,-0.00061,0.00931,0.95795,0.00567,0.00931,3,12262,0,1341,0.07004,0.05393,0.76998,93,1,90.751,136,1,3,4359,185610,0,0,0.000,11.175,12.394,0,0.000,15.662,17.134,0,0,1,0,8
PPG,2,20194,809310536,533,171168,190932,190293.969,638.031,25.594,0,0,0,0,78.95,78.95,2,1,16,nan,2,2,53,1,1,2,2,0,0,0,809579459,0.04419,-0.00659,0.95508,0.95612,-0.00745,0.00158,-0.00087,0.00767,0.95718,0.00106,0.00790,3,12259,0,1341,0.08310,0.02626,0.31599,94,1,nan,166,1,3,4335,185610,0,0,0.000,11.175,12.394,0,0.000,15.662,17.134,0,0,1,0,8
PPG,2,20195,809350536,181,171195,190946,190300.484,645.516,42.469,0,0,0,0,78.95,78.95,2,1,16,nan,2,2,53,1,1,3,3,0,0,0,809619182,0.04199,-0.00513,0.95728,0.95821,-0.00692,0.00212,0.00019,0.00724,0.96030,0.00364,0.00841,3,12209,0,1341,0.08310,0.02626,0.31599,94,1,nan,166,1,3,2633,185610,0,0,0.000,11.175,12.394,0,0.000,15.662,17.134,0,0,1,0,8
PPG,2,20196,809390536,130,171181,190939,190306.875,632.125,56.094,0,0,0,0,78.95,78.95,2,1,16,nan,2,2,53,1,1,4,4,0,0,0,809661246,0.04004,-0.00781,0.95825,0.95912,-0.00692,0.00185,0.00019,0.00716,0.96505,0.00684,0.00838,3,12292,0,1341,0.08310,0.02626,0.31599,94,1,nan,166,1,3,4352,185610,0,0,0.000,11.175,12.394,0,0.000,15.662,17.134,0,0,1,0,8
PPG,2,20197,809430536,129,171161,190927,190313.078,613.922,64.828,0,0,0,0,78.95,78.95,2,1,16,nan,2,2,53,1,1,5,5,0,0,0,809700489,0.04248,-0.00439,0.95337,0.95433,-0.00745,0.00185,-0.00061,0.00770,0.96059,0.00626,0.00783,3,12212,0,1341,0.08310,0.02626,0.31599,94,1,nan,166,1,3,4341,185610,0,0,0.000,11.175,12.394,0,0.000,15.662,17.134,0,0,1,0,8
PPG,2,20198,809470536,133,171151,190918,190319.125,598.875,73.047,0,0,0,0,78.95,78.95,2,1,16,nan,2,2,53,1,1,6,6,0,0,0,809739757,0.04224,-0.00488,0.96021,0.96115,-0.00905,0.00212,-0.00061,0.00931,0.96115,0.00682,0.00931,3,12254,0,1341,0.08310,0.02626,0.31599,94,1,nan,166,1,3,4328,185610,0,0,0.000,11.175,12.394,0,0.000,15.662,17.134,0,0,1,0,8
PPG,2,20199,809510536,129,171148,190936,190325.297,610.703,82.672,0,0,0,0,78.95,78.95,2,1,16,nan,2,2,53,1,1,7,7,0,0,0,809779072,0.04517,-0.00488,0.96069,0.96177,-0.00825,0.00238,-0.00034,0.00859,0.96177,0.00504,0.00972,3,12216,0,1341,0.08310,0.02626,0.31599,94,1,nan,166,1,3,2623,185610,0,0,0.000,11.175,12.394,0,0.000,15.662,17.134,0,0,1,0,8
PPG,2,20200,809550536,136,171183,190946,190331.500,614.500,88.359,0,0,0,0,78.95,78.95,2,1,16,nan,2,2,53,1,1,8,8,0,0,0,809820944,0.04297,-0.00708,0.95557,0.95656,-0.00718,0.00185,-0.00061,0.00744,0.96282,0.00626,0.00805,3,12260,0,1341,0.08310,0.02626,0.31599,94,1,nan,166,1,3,4335,185610,0,0,0.000,11.175,12.394,0,0.000,15.662,17.134,0,0,1,0,8
PPG,2,20201,809590536,147,171221,190935,190337.531,597.469,79.734,0,0,0,0,78.95,78.95,2,1,16,nan,2,2,53,1,1,9,9,0,0,0,809860222,0.04712,-0.00977,0.95679,0.95800,-0.00852,0.00105,-0.00007,0.00858,0.95800,0.00407,0.00858,3,12274,0,1341,0.08310,0.02626,0.31599,94,1,nan,166,1,3,4329,185610,0,0,0.000,11.175,12.394,0,0.000,15.662,17.134,0,0,1,0,8
PPG,2,20202,809630536,147,171214,190942,190343.578,598.422,68.625,0,0,0,0,78.95,78.95,2,1,16,nan,2,2,53,1,1,10,10,0,0,0,809899453,0.04248,-0.00757,0.95410,0.95508,-0.00958,0.00105,0.00019,0.00964,0.96244,0.00736,0.00975,3,12212,0,1341,0.08310,0.02626,0.31599,94,1,nan,166,1,3,4329,185610,0,0,0.000,11.175,12.394,0,0.000,15.662,17.134,0,0,1,0,8
PPG,2,20203,809670536,130,171259,191004,190350.188,653.812,67.000,0,0,0,0,78.95,78.95,2,1,16,nan,2,2,53,1,1,11,11,0,0,0,809938708,0.04297,-0.00830,0.95581,0.95681,-0.00825,0.00132,-0.00141,0.00847,0.96603,0.01095,0.00847,3,12235,0,1341,0.08310,0.02626,0.31599,94,1,nan,166,1,3,2635,185610,0,0,0.000,11.175,12.394,0,0.000,15.662,17.134,0,0,1,0,8
PPG,2,20204,809710536,130,171237,190983,190356.516,626.484,65.250,0,0,0,0,78.95,78.95,2,1,16,nan,2,2,53,1,1,12,12,0,0,0,809980710,0.04224,-0.00513,0.95532,0.95627,-0.00772,0.00292,-0.00061,0.00827,0.95627,0.00915,0.00880,3,12231,0,1341,0.08310,0.02626,0.31599,94,1,nan,166,1,3,4323,185610,0,0,0.000,11.175,12.394,0,0.000,15.662,17.134,0,0,1,0,8
PPG,2,20205,809750536,138,171219,190975,190362.703,612.297,63.094,0,0,0,0,78.95,78.95,2,1,16,nan,2,2,53,1,1,13,13,0,0,0,810019961,0.04175,0.00146,0.95996,0.96087,-0.00958,0.00105,-0.00087,0.00968,0.96087,0.00690,0.00968,3,12229,0,1341,0.08310,0.02626,0.31599,94,1,nan,166,1,3,4331,185610,0,0,0.000,11.175,12.394,0,0.000,15.662,17.134,0,0,1,0,8
PPG,2,20206,809790536,129,171198,190966,190368.734,597.266,56.922,0,0,0,0,78.95,78.95,2,1,16,nan,2,2,53,1,1,14,14,0,0,0,810059175,0.04565,-0.00684,0.95581,0.95692,-0.00798,0.00158,0.00046,0.00815,0.95730,0.00357,0.00916,3,12228,0,1341,0.08310,0.02626,0.31599,94,1,nan,166,1,3,2633,185610,0,0,0.000,11.175,12.394,0,0.000,15.662,17.134,0,0,1,0,8
PPG,2,20207,809830536,153,171180,190923,190374.281,548.719,46.641,0,0,0,0,78.95,78.95,2,1,16,nan,2,2,53,1,1,15,15,0,0,0,810101266,0.04102,-0.00415,0.96094,0.96182,-0.00772,0.00158,-0.00034,0.00788,0.96182,0.00325,0.00859,2,24797,0,1342,0.08310,0.02626,0.31599,94,1,nan,166,1,3,4385,185610,0,0,0.000,11.175,12.394,0,0.000,15.662,17.134,0,0,1,0,8
PPG,2,20208,809870536,134,171151,190885,190379.391,505.609,34.344,1,0,0,0,78.95,78.95,2,1,16,nan,2,2,53,1,1,16,16,0,0,0,810140393,0.04150,-0.00708,0.95752,0.95844,-0.00745,0.00185,-0.00114,0.00776,0.95935,0.00405,0.00847,3,12159,0,1342,0.08310,0.02626,0.31599,94,1,nan,166,1,3,4298,185610,0,0,0.000,11.175,12.394,0,85.438,15.662,17.134,1,0,1,0,8
PPG,2,20209,809910536,155,171143,190854,190384.141,469.859,19.828,0,0,1,800,76.92,76.92,2,1,16,nan,2,2,53,1,1,17,17,0,0,0,810179470,0.04419,-0.00586,0.95532,0.95636,-0.00878,0.00238,-0.00087,0.00914,0.96086,0.00355,0.00914,3,12134,0,1342,0.08310,0.02626,0.31599,94,1,nan,166,1,3,2599,185610,0,0,55.125,11.175,12.394,1,0.000,15.662,17.134,0,1,1,0,8
PPG,2,20210,809950536,144,171155,190862,190388.922,473.078,-0.859,0,0,0,0,76.92,76.92,2,1,16,nan,2,2,53,1,1,18,18,0,0,0,810221134,0.04590,-0.00903,0.95483,0.95598,-0.00852,0.00292,-0.00061,0.00902,0.96497,0.00899,0.00902,3,12129,0,1342,0.08310,0.02626,0.31599,94,1,nan,166,1,3,4300,185610,0,0,0.000,10.968,11.813,0,0.000,15.268,16.224,0,0,1,0,8
PPG,2,20211,809990536,133,171160,190890,190393.938,496.062,-16.391,0,0,0,0,76.92,76.92,2,1,16,nan,2,2,53,1,1,19,19,0,0,0,810260083,0.04443,-0.00439,0.95850,0.95954,-0.00798,0.00185,-0.00087,0.00824,0.96069,0.00241,0.00824,3,12123,0,1342,0.08310,0.02626,0.31599,94,1,nan,166,1,3,4303,185610,0,0,0.000,10.968,11.813,0,0.000,15.268,16.224,0,0,1,0,8
PPG,2,20212,810030536,131,171148,190913,190399.125,513.875,-28.453,0,0,0,0,76.92,76.92,2,1,16,nan,2,2,53,1,1,20,20,0,0,0,810299145,0.04248,-0.00586,0.96240,0.96336,-0.00798,0.00105,-0.00034,0.00806,0.96336,0.00758,0.00880,3,12121,0,1342,0.08310,0.02626,0.31599,94,1,nan,166,1,3,2595,185610,0,0,0.000,10.968,11.813,0,0.000,15.268,16.224,0,0,1,0,8
PPG,2,20213,810070536,129,171130,190890,190404.031,485.969,-40.156,0,0,0,0,76.92,76.92,2,1,16,nan,2,2,53,1,1,21,21,0,0,0,810340667,0.04395,-0.00757,0.95605,0.95709,-0.00772,0.00052,-0.00061,0.00776,0.96153,0.00460,0.00776,3,12121,0,1342,0.08310,0.02626,0.31599,94,1,nan,166,1,3,4303,185610,0,0,0.000,10.968,11.813,0,0.000,15.268,16.224,0,0,1,0,8
PPG,2,20214,810110536,130,171096,190845,190408.438,436.562,-46.953,0,0,0,0,76.92,76.92,2,1,16,nan,2,2,53,1,1,22,22,0,0,0,810379656,0.04663,-0.00439,0.95337,0.95452,-0.00745,0.00105,-0.00061,0.00755,0.96022,0.00315,0.00854,3,12143,0,1342,0.08310,0.02626,0.31599,94,1,nan,166,1,3,4302,185610,0,0,0.000,10.968,11.813,0,0.000,15.268,16.224,0,0,1,0,8
PPG,2,20215,810150536,128,171029,190754,190411.891,342.109,-56.062,0,0,0,0,76.92,76.92,2,1,16,nan,2,2,53,1,1,23,23,0,0,0,810418660,0.04492,-0.00366,0.95459,0.95565,-0.00798,0.00238,-0.00061,0.00835,0.95832,0.00283,0.00835,3,12114,0,1342,0.08310,0.02626,0.31599,94,1,nan,166,1,3,2594,185610,0,0,0.000,10.968,11.813,0,0.000,15.268,16.224,0,0,1,0,8
PPG,2,20216,810190536,129,170987,190741,190415.188,325.812,-62.312,0,0,0,0,76.92,76.92,2,1,16,nan,2,2,53,1,1,24,24,0,0,0,810460248,0.04321,-0.00488,0.95972,0.96070,-0.00798,0.00185,-0.00167,0.00836,0.96070,0.00375,0.00836,3,12126,0,1342,0.08310,0.02626,0.31599,94,1,nan,166,1,3,4295,185610,0,0,0.000,10.968,11.813,0,0.000,15.268,16.224,0,0,1,0,8
PPG,2,20217,810230536,130,171020,190763,190418.672,344.328,-68.250,0,0,0,0,76.92,76.92,2,1,16,nan,2,2,53,1,1,25,25,0,0,0,810499297,0.04175,-0.00659,0.96704,0.96796,-0.00825,0.00132,-0.00087,0.00840,0.96796,0.00713,0.00859,3,12117,0,1342,0.08310,0.02626,0.31599,94,1,nan,166,1,3,2595,185610,0,0,0.000,10.968,11.813,0,0.000,15.268,16.224,0,0,1,0,8
PPG,2,20218,810270536,129,170989,190755,190422.031,332.969,-79.375,0,0,0,0,76.92,76.92,2,1,16,nan,2,2,53,1,1,26,26,0,0,0,810540824,0.04297,-0.00732,0.95264,0.95363,-0.00852,0.00079,-0.00114,0.00863,0.95867,0.00929,0.00863,3,12117,0,1342,0.08310,0.02626,0.31599,94,1,nan,166,1,3,4305,185610,0,0,0.000,10.968,11.813,0,0.000,15.268,16.224,0,0,1,0,8
PPG,2,20219,810310536,516,170982,190734,190425.156,308.844,-94.859,0,0,0,0,76.92,76.92,2,1,16,nan,2,2,53,1,1,27,27,0,0,0,810579819,0.04175,-0.00562,0.95898,0.95991,-0.00825,0.00158,-0.00061,0.00842,0.95991,0.00326,0.00904,3,12146,0,1342,0.07918,0.03031,0.38284,99,1,100.429,125,1,3,4307,185610,0,0,0.000,10.968,11.813,0,0.000,15.268,16.224,0,0,1,0,8
PPG,2,20220,810350536,180,170974,190641,190427.312,213.688,-115.172,0,0,0,0,76.92,76.92,2,1,16,nan,2,2,53,1,1,28,28,0,0,0,810619233,0.04517,-0.01074,0.95654,0.95767,-0.00718,0.00185,0.00046,0.00743,0.96096,0.00416,0.00743,3,12130,0,1342,0.07918,0.03031,0.38284,99,1,100.429,125,1,3,2606,185610,0,0,0.000,10.968,11.813,0,0.000,15.268,16.224,0,0,1,0,8
PPG,2,20221,810390536,138,170933,190587,190428.906,158.094,-134.625,0,0,0,0,76.92,76.92,2,1,16,nan,2,2,53,1,1,29,29,0,0,0,810660936,0.04443,-0.00830,0.95850,0.95956,-0.00878,0.00318,-0.00034,0.00935,0.96178,0.00412,0.00935,3,12120,0,1342,0.07918,0.03031,0.38284,99,1,100.429,125,1,3,4298,185610,0,0,0.000,10.968,11.813,0,0.000,15.268,16.224,0,0,1,0,8
PPG,2,20222,810430536,129,170943,190631,190430.922,200.078,-136.656,0,0,0,0,76.92,76.92,2,1,16,nan,2,2,53,1,1,30,30,0,0,0,810699921,0.03857,-0.00439,0.95459,0.95538,-0.00931,0.00158,-0.00034,0.00945,0.95958,0.00408,0.00945,3,12118,0,1342,0.07918,0.03031,0.38284,99,1,100.429,125,1,3,4296,185610,0,0,0.000,10.968,11.813,0,0.000,15.268,16.224,0,0,1,0,8
PPG,2,20223,810470536,127,170999,190707,190433.688,273.312,-126.672,0,0,0,0,76.92,76.92,2,1,16,nan,2,2,53,1,1,31,31,0,0,0,810738886,0.04565,-0.00342,0.95215,0.95325,-0.00745,0.00158,-0.00087,0.00767,0.95947,0.00409,0.00796,3,12130,0,1342,0.07918,0.03031,0.38284,99,1,100.429,125,1,3,2595,185610,0,0,0.000,10.968,11.813,0,0.000,15.268,16.224,0,0,1,0,8
PPG,2,20224,810510536,132,171026,190779,190437.141,341.859,-114.172,0,0,0,0,76.92,76.92,2,1,16,nan,2,2,53,1,1,0,0,0,0,0,810780604,0.04175,-0.00464,0.95776,0.95868,-0.00745,0.00185,0.00019,0.00768,0.96060,0.00736,0.00768,3,12210,0,1342,0.07918,0.03031,0.38284,99,1,100.429,125,1,3,4361,185610,0,0,0.000,10.968,11.813,0,0.000,15.268,16.224,0,0,1,0,8
PPG,2,20225,810550536,129,171093,190834,190441.109,392.891,-95.844,0,0,0,0,76.92,76.92,2,1,16,nan,2,2,53,1,1,1,1,0,0,0,810819864,0.04175,-0.00806,0.95850,0.95944,-0.00772,0.00158,-0.00061,0.00790,0.96437,0.00818,0.00804,3,12117,0,1342,0.07918,0.03031,0.38284,99,1,100.429,125,1,3,4302,185610,0,0,0.000,10.968,11.813,0,0.000,15.268,16.224,0,0,1,0,8
PPG,2,20226,810590536,130,171115,190886,190445.562,440.438,-70.125,0,0,0,0,76.92,76.92,2,1,16,nan,2,2,53,1,1,2,2,0,0,0,810858875,0.04175,-0.00708,0.95044,0.95138,-0.00905,0.00132,-0.00194,0.00935,0.96416,0.00987,0.00935,3,12108,0,1342,0.07918,0.03031,0.38284,99,1,100.429,125,1,3,2596,185610,0,0,0.000,10.968,11.813,0,0.000,15.268,16.224,0,0,1,0,8
PPG,2,20227,810630536,129,171130,190896,190450.062,445.938,-32.344,0,0,0,0,76.92,76.92,2,1,16,nan,2,2,53,1,1,3,3,0,0,0,810900546,0.04639,-0.00513,0.95874,0.95988,-0.00798,0.00212,-0.00087,0.00830,0.95988,0.00398,0.00830,3,12138,0,1342,0.07918,0.03031,0.38284,99,1,100.429,125,1,3,4298,185610,0,0,0.000,10.968,11.813,0,0.000,15.268,16.224,0,0,1,0,8
PPG,2,20228,810670536,130,171131,190912,190454.688,457.312,12.719,0,0,0,0,76.92,76.92,2,1,16,nan,2,2,53,1,1,4,4,0,0,0,810939578,0.04468,-0.00806,0.95605,0.95713,-0.00905,0.00185,-0.00061,0.00926,0.96870,0.01157,0.00926,3,12112,0,1342,0.07918,0.03031,0.38284,99,1,100.429,125,1,3,2600,185610,0,0,0.000,10.968,11.813,0,0.000,15.268,16.224,0,0,1,0,8
PPG,2,20229,810710536,129,171153,190944,190459.578,484.422,52.938,0,0,0,0,76.92,76.92,2,1,16,nan,2,2,53,1,1,5,5,0,0,0,810981254,0.04395,-0.00586,0.96143,0.96245,-0.00692,0.00158,-0.00114,0.00719,0.96302,0.00589,0.00933,3,12158,0,1342,0.07918,0.03031,0.38284,99,1,100.429,125,1,3,4330,185610,0,0,0.000,10.968,11.813,0,0.000,15.268,16.224,0,0,1,0,8
PPG,2,20230,810750536,129,171168,190976,190464.750,511.250,85.672,0,0,0,0,76.92,76.92,2,1,16,nan,2,2,53,1,1,6,6,0,0,0,811020295,0.04468,-0.00610,0.95581,0.95687,-0.00852,0.00105,-0.00114,0.00866,0.95920,0.01047,0.00866,3,12124,0,1342,0.07918,0.03031,0.38284,99,1,100.429,125,1,3,4304,185610,0,0,0.000,10.968,11.813,0,0.000,15.268,16.224,0,0,1,0,8
PPG,2,20231,810790536,127,171153,190970,190469.797,500.203,108.953,0,0,0,0,76.92,76.92,2,1,16,nan,2,2,53,1,1,7,7,0,0,0,811059257,0.04248,-0.00928,0.96338,0.96436,-0.00825,0.00292,-0.00034,0.00876,0.96436,0.01013,0.00876,3,12122,0,1342,0.07918,0.03031,0.38284,99,1,100.429,125,1,3,2610,185610,0,0,0.000,10.968,11.813,0,0.000,15.268,16.224,0,0,1,0,8
PPG,2,20232,810830536,135,171161,190975,190474.844,500.156,126.000,0,0,0,0,76.92,76.92,2,1,16,nan,2,2,53,1,1,8,8,0,0,0,811100646,0.04443,-0.00513,0.95947,0.96051,-0.00852,0.00105,-0.00087,0.00862,0.96051,0.00428,0.00862,2,24115,0,1343,0.07918,0.03031,0.38284,99,1,100.429,125,1,3,4377,185610,0,0,0.000,10.968,11.813,0,0.000,15.268,16.224,0,0,1,0,8
PPG,2,20233,810870536,132,171138,190942,190479.516,462.484,131.406,0,0,0,0,76.92,76.92,2,1,16,nan,2,2,53,1,1,9,9,0,0,0,811139670,0.04346,-0.00488,0.95190,0.95291,-0.00745,0.00158,-0.00061,0.00764,0.95626,0.00426,0.00826,3,12109,0,1343,0.07918,0.03031,0.38284,99,1,100.429,125,1,3,2600,185610,0,0,0.000,10.968,11.813,0,0.000,15.268,16.224,0,0,1,0,8
PPG,2,20234,810910536,162,171108,190917,190483.891,433.109,130.797,0,0,0,0,76.92,76.92,2,1,16,nan,2,2,53,1,1,10,10,0,0,0,811181232,0.04321,-0.00732,0.96289,0.96389,-0.00745,0.00212,-0.00114,0.00783,0.96389,0.00836,0.00882,3,12127,0,1343,0.07918,0.03031,0.38284,99,1,100.429,125,1,3,4313,185610,0,0,0.000,10.968,11.813,0,0.000,15.268,16.224,0,0,1,0,8
PPG,2,20235,810950536,129,171127,190942,190488.469,453.531,125.688,0,0,0,0,76.92,76.92,2,1,16,nan,2,2,53,1,1,11,11,0,0,0,811220246,0.04053,-0.00684,0.96265,0.96352,-0.00798,0.00105,0.00019,0.00805,0.96352,0.00363,0.00861,3,12118,0,1343,0.07918,0.03031,0.38284,99,1,100.429,125,1,3,4300,185610,0,0,0.000,10.968,11.813,0,0.000,15.268,16.224,0,0,1,0,8
PPG,2,20236,810990536,132,171131,190958,190493.156,464.844,116.828,0,0,0,0,76.92,76.92,2,1,16,nan,2,2,53,1,1,12,12,0,0,0,811259257,0.03833,-0.00684,0.96289,0.96368,-0.00772,0.00158,0.00099,0.00794,0.96368,0.00670,0.00853,3,12122,0,1343,0.07918,0.03031,0.38284,99,1,100.429,125,1,3,2600,185610,0,0,0.000,10.968,11.813,0,0.000,15.268,16.224,0,0,1,0,8
PPG,2,20237,811030536,131,171095,190906,190497.281,408.719,99.688,0,1,0,0,76.92,76.92,2,1,16,nan,2,2,53,1,1,13,13,0,0,0,811300847,0.04175,-0.00537,0.95996,0.96088,-0.00798,0.00132,-0.00034,0.00810,0.96307,0.00542,0.00816,3,12136,0,1343,0.07918,0.03031,0.38284,99,1,100.429,125,1,3,4306,185610,0,0,0.000,10.968,11.813,0,0.000,15.268,16.224,0,0,1,0,8
PPG,2,20238,811070536,132,171040,190798,190500.281,297.719,72.969,0,0,0,0,76.92,76.92,2,1,16,nan,2,2,53,1,1,14,14,0,0,0,811339848,0.04321,-0.00562,0.95166,0.95266,-0.00798,0.00212,-0.00061,0.00828,0.96063,0.00828,0.00905,3,12116,0,1343,0.07918,0.03031,0.38284,99,1,100.429,125,1,3,2598,185610,0,0,0.000,10.968,11.813,0,0.000,15.268,16.224,0,0,1,0,8
PPG,2,20239,811110536,129,171026,190755,190502.828,252.172,40.484,0,0,0,0,76.92,76.92,2,1,16,nan,2,2,53,1,1,15,15,0,0,0,811381408,0.04297,-0.00586,0.95923,0.96021,-0.00772,0.00212,-0.00034,0.00801,0.96201,0.00766,0.00843,3,12113,0,1343,0.07918,0.03031,0.38284,99,1,100.429,125,1,3,4295,185610,0,0,0.000,10.968,11.813,0,0.000,15.268,16.224,0,0,1,0,8
PPG,2,20240,811150536,130,171054,190802,190505.812,296.188,12.438,0,0,0,0,76.92,76.92,2,1,16,nan,2,2,53,1,1,16,16,0,0,0,811420354,0.04370,-0.00610,0.95801,0.95902,-0.00638,0.00185,-0.00034,0.00666,0.95902,0.00599,0.00729,3,12111,0,1343,0.07918,0.03031,0.38284,99,1,100.429,125,1,3,4303,185610,0,0,0.000,10.968,11.813,0,0.000,15.268,16.224,0,0,1,0,8
PPG,2,20241,811190536,152,171046,190818,190508.938,309.062,-13.266,1,0,1,1300,75.00,75.00,2,1,16,nan,2,2,53,1,1,17,17,0,0,0,811459394,0.03857,-0.00708,0.96460,0.96540,-0.00772,0.00238,-0.00087,0.00812,0.96810,0.00536,0.00905,3,12116,0,1343,0.07918,0.03031,0.38284,99,1,100.429,125,1,3,2595,185610,0,0,209.203,10.968,11.813,1,268.062,15.268,16.224,1,1,1,0,8
PPG,2,20242,811230536,132,171044,190827,190512.125,314.875,-39.484,0,0,0,0,75.00,75.00,2,1,16,nan,2,2,53,1,1,18,18,0,0,0,811501144,0.04248,-0.00537,0.95239,0.95335,-0.00772,0.00185,-0.00114,0.00802,0.96177,0.00439,0.00892,3,12147,0,1343,0.07918,0.03031,0.38284,99,1,100.429,125,1,3,4297,185610,0,0,0.000,11.750,14.009,0,0.000,16.064,18.062,0,0,1,0,8
PPG,2,20243,811270536,131,171038,190837,190515.375,321.625,-63.281,0,0,0,0,75.00,75.00,2,1,16,nan,2,2,53,1,1,19,19,0,0,0,811540100,0.04150,-0.00415,0.95801,0.95892,-0.00852,0.00265,-0.00114,0.00899,0.95892,0.00503,0.00940,3,12118,0,1343,0.07918,0.03031,0.38284,99,1,100.429,125,1,3,4299,185610,0,0,0.000,11.750,14.009,0,0.000,16.064,18.062,0,0,1,0,8
PPG,2,20244,811310536,512,171028,190821,190518.438,302.562,-77.516,0,0,0,0,75.00,75.00,2,1,16,nan,2,2,53,1,1,20,20,0,0,0,811579027,0.04492,-0.00317,0.95630,0.95736,-0.00745,0.00212,-0.00007,0.00775,0.96559,0.00799,0.00882,3,12106,0,1343,0.06221,0.03925,0.63093,93,1,94.227,78,1,3,2595,185610,0,0,0.000,11.750,14.009,0,0.000,16.064,18.062,0,0,1,0,8
PPG,2,20245,811350536,181,171037,190829,190521.547,307.453,-72.828,0,0,0,0,75.00,75.00,2,1,16,nan,2,2,53,1,1,21,21,0,0,0,811621129,0.04517,-0.00391,0.95752,0.95859,-0.00745,0.00345,-0.00061,0.00823,0.95859,0.00173,0.00823,3,12118,0,1343,0.06221,0.03925,0.63093,93,1,94.227,78,1,3,4298,185610,0,0,0.000,11.750,14.009,0,0.000,16.064,18.062,0,0,1,0,8
PPG,2,20246,811390536,134,171061,190869,190525.016,343.984,-55.703,0,0,0,0,75.00,75.00,2,1,16,nan,2,2,53,1,1,22,22,0,0,0,811660135,0.04468,-0.00757,0.95898,0.96005,-0.00852,0.00158,-0.00061,0.00868,0.96023,0.00217,0.00870,3,12124,0,1343,0.06221,0.03925,0.63093,93,1,94.227,78,1,3,4300,185610,0,0,0.000,11.750,14.009,0,0.000,16.064,18.062,0,0,1,0,8
PPG,2,20247,811430536,129,171096,190951,190529.281,421.719,-37.172,0,0,0,0,75.00,75.00,2,1,16,nan,2,2,53,1,1,23,23,0,0,0,811699112,0.04297,-0.00806,0.95630,0.95730,-0.00798,0.00212,-0.00167,0.00843,0.96436,0.01158,0.00843,3,12154,0,1343,0.06221,0.03925,0.63093,93,1,94.227,78,1,3,2599,185610,0,0,0.000,11.750,14.009,0,0.000,16.064,18.062,0,0,1,0,8
PPG,2,20248,811470536,130,171162,191054,190534.531,519.469,-10.547,0,0,0,0,75.00,75.00,2,1,16,nan,2,2,53,1,1,24,24,0,0,0,811740666,0.04126,-0.00415,0.96045,0.96134,-0.00772,0.00238,-0.00141,0.00820,0.96134,0.00333,0.00852,3,12120,0,1343,0.06221,0.03925,0.63093,93,1,94.227,78,1,3,4304,185610,0,0,0.000,11.750,14.009,0,0.000,16.064,18.062,0,0,1,0,8
PPG,2,20249,811510536,129,171218,191131,190540.500,590.500,23.516,0,0,0,0,75.00,75.00,2,1,16,nan,2,2,53,1,1,25,25,0,0,0,811779619,0.04102,-0.00610,0.95435,0.95525,-0.00692,0.00185,-0.00007,0.00716,0.96291,0.00766,0.00812,3,12119,0,1343,0.06221,0.03925,0.63093,93,1,94.227,78,1,3,2597,185610,0,0,0.000,11.750,14.009,0,0.000,16.064,18.062,0,0,1,0,8
PPG,2,20250,811550536,130,171247,191185,190546.938,638.062,62.797,0,0,0,0,75.00,75.00,2,1,16,nan,2,2,53,1,1,26,26,0,0,0,811821362,0.04248,-0.00952,0.95581,0.95680,-0.00692,0.00212,-0.00141,0.00737,0.96237,0.00557,0.00764,3,12155,0,1343,0.06221,0.03925,0.63093,93,1,94.227,78,1,3,4300,185610,0,0,0.000,11.750,14.009,0,0.000,16.064,18.062,0,0,1,0,8
PPG,2,20251,811590536,129,171220,191159,190553.062,605.938,101.625,0,0,0,0,75.00,75.00,2,1,16,nan,2,2,53,1,1,27,27,0,0,0,811860548,0.04272,-0.00610,0.95435,0.95532,-0.00745,0.00132,-0.00194,0.00781,0.95939,0.00407,0.00813,3,12205,0,1343,0.06221,0.03925,0.63093,93,1,94.227,78,1,3,4295,185610,0,0,0.000,11.750,14.009,0,0.000,16.064,18.062,0,0,1,0,8
PPG,2,20252,811630536,130,171130,191079,190558.328,520.672,132.141,0,0,0,0,75.00,75.00,2,1,16,nan,2,2,53,1,1,28,28,0,0,0,811899943,0.04370,-0.00488,0.95483,0.95585,-0.00718,0.00185,0.00046,0.00743,0.96044,0.00512,0.00757,3,12242,0,1343,0.06221,0.03925,0.63093,93,1,94.227,78,1,3,2647,185610,0,0,0.000,11.750,14.009,0,0.000,16.064,18.062,0,0,1,0,8
PPG,2,20253,811670536,137,171075,191006,190562.812,443.188,148.516,0,0,0,0,75.00,75.00,2,1,16,nan,2,2,53,1,1,29,29,0,0,0,811941979,0.04199,-0.00513,0.95825,0.95919,-0.00798,0.00212,-0.00007,0.00826,0.96006,0.00336,0.00826,3,12294,0,1343,0.06221,0.03925,0.63093,93,1,94.227,78,1,3,4337,185610,0,0,0.000,11.750,14.009,0,0.000,16.064,18.062,0,0,1,0,8
PPG,2,20254,811710536,150,171060,191009,190567.281,441.719,152.203,0,0,0,0,75.00,75.00,2,1,16,nan,2,2,53,1,1,30,30,0,0,0,811981336,0.04346,-0.00513,0.96021,0.96120,-0.00825,0.00185,-0.00007,0.00845,0.96120,0.00964,0.00845,3,12200,0,1343,0.06221,0.03925,0.63093,93,1,94.227,78,1,3,4351,185610,0,0,0.000,11.750,14.009,0,0.000,16.064,18.062,0,0,1,0,8
PPG,2,20255,811750536,167,171037,190957,190571.172,385.828,137.594,0,0,0,0,75.00,75.00,2,1,16,nan,2,2,53,1,1,31,31,0,0,0,812020734,0.03955,-0.00952,0.96167,0.96253,-0.00772,0.00025,-0.00114,0.00780,0.96253,0.00379,0.00821,3,12250,0,1343,0.06221,0.03925,0.63093,93,1,94.227,78,1,3,4335,185610,0,0,0.000,11.750,14.009,0,0.000,16.064,18.062,0,0,1,0,8
PPG,2,20256,811790536,129,170972,190817,190573.625,243.375,99.781,0,0,0,0,75.00,75.00,2,1,16,nan,2,2,53,1,1,0,0,0,0,0,812060074,0.04053,-0.00781,0.95361,0.95451,-0.00745,0.00212,-0.00007,0.00775,0.95646,0.00607,0.00863,3,12213,0,1343,0.06221,0.03925,0.63093,93,1,94.227,78,1,3,2655,185610,0,0,0.000,11.750,14.009,0,0.000,16.064,18.062,0,0,1,0,8
PPG,2,20257,811830536,142,170956,190744,190575.328,168.672,44.875,0,0,0,0,75.00,75.00,2,1,16,nan,2,2,53,2,2,2,2,0,0,0,812164595,0.04150,-0.00488,0.96167,0.96258,-0.00772,0.00265,-0.00141,0.00828,0.96429,0.00978,0.00882,3,62785,0,1349,0.06221,0.03925,0.63093,93,1,94.227,78,1,3,62742,185610,0,0,0.000,11.750,14.009,0,0.000,16.064,18.062,0,0,1,0,8
PPG,2,20258,811870536,40,170983,190810,190577.672,232.328,-5.578,0,0,0,0,75.00,75.00,2,1,16,nan,2,2,53,2,2,2,2,0,0,0,812164595,0.04150,-0.00488,0.96167,0.96258,-0.00772,0.00265,-0.00141,0.00828,0.00000,0.00000,0.00000,0,62785,0,1349,0.06221,0.03925,0.63093,93,1,94.227,78,1,3,62742,185610,0,0,0.000,11.750,14.009,0,0.000,16.064,18.062,0,0,1,0,8
PPG,2,20259,811910536,136,171029,190913,190581.031,331.969,-37.188,0,0,0,0,75.00,75.00,2,1,16,nan,2,2,53,1,1,3,3,0,0,0,812178118,0.03809,-0.00513,0.96045,0.96122,-0.00905,0.00105,-0.00141,0.00922,0.96122,0.00136,0.00922,1,13523,0,1349,0.06221,0.03925,0.63093,93,1,94.227,78,1,3,10115,185610,0,0,0.000,11.750,14.009,0,0.000,16.064,18.062,0,0,1,0,8
PPG,2,20260,811950536,129,171081,190965,190584.875,380.125,-51.188,0,0,0,0,75.00,75.00,2,1,16,nan,2,2,53,1,1,4,4,0,0,0,812223162,0.04102,-0.00439,0.96045,0.96133,-0.00745,0.00265,-0.00167,0.00808,0.96544,0.00410,0.00845,3,12232,0,1350,0.06221,0.03925,0.63093,93,1,94.227,78,1,3,2617,185610,0,0,0.000,11.750,14.009,0,0.000,16.064,18.062,0,0,1,0,8
PPG,2,20261,811990536,132,171093,190990,190588.922,401.078,-62.516,0,0,0,0,75.00,75.00,2,1,16,nan,2,2,53,1,1,5,5,0,0,0,812259888,0.04272,-0.00635,0.94946,0.95044,-0.00905,0.00212,-0.00007,0.00929,0.95515,0.00709,0.00929,3,12246,0,1350,0.06221,0.03925,0.63093,93,1,94.227,78,1,3,2623,185610,0,0,124.375,11.750,14.009,1,0.000,16.064,18.062,0,0,1,0,8
PPG,2,20262,812030536,157,171092,191006,190593.094,412.906,-64.453,1,0,1,820,75.00,75.00,2,1,16,nan,2,2,53,1,1,6,6,0,0,0,812301792,0.04517,-0.00732,0.96533,0.96642,-0.00825,0.00238,-0.00141,0.00870,0.96642,0.00576,0.00870,3,12239,0,1350,0.06221,0.03925,0.63093,93,1,94.227,78,1,3,4340,185610,0,0,0.000,11.750,14.009,0,229.719,16.064,18.062,1,1,1,0,8
