type,session_id,sample_index,sample_time_us,processing_time_us,red_raw,ir_raw,ir_dc,ir_ac,ir_filtered,peak_custom,peak_sparkfun,peak_accepted,ibi_ms,bpm_instant,bpm_robust,hr_status,ppg_quality,ppg_quality_flags,spo2_result,spo2_status,spo2_quality,led_amplitude,sparkfun_check_count,sparkfun_available,hw_fifo_read_ptr,hw_fifo_write_ptr,hw_fifo_overflow,suspected_drops,missing_samples,mpu_time_us,ax_g,ay_g,az_g,acc_mag_g,gx_rad_s,gy_rad_s,gz_rad_s,gyro_mag_rad_s,mpu_window_peak_g,mpu_window_delta_g,mpu_window_gyro_rad_s,mpu_window_samples,mpu_dt_us,mpu_saturated,mpu_missed_deadlines,ppg_mod_ir_pct,ppg_mod_red_pct,ppg_ratio_r,spo2_maxim,spo2_maxim_valid,spo2_custom_candidate,maxim_hr,maxim_hr_valid,measurement_state,loop_last_us,loop_max_us,display_render_us,i2c_failures,red_prominence,red_threshold,red_snr,red_candidate,ir_prominence,ir_threshold,ir_snr,ir_candidate,peak_fused,detector_state,quarantine_remaining_ms,synchronized_count
PPG,7,364872,14596430587,202,76293,80578,80444.867,133.133,12.203,0,0,0,0,71.43,71.43,2,1,0,100.00,0,1,24,1,1,8,8,0,0,0,1714433034,0.03052,0.02002,0.94653,0.94724,-0.00558,-0.00161,-0.00167,0.00605,0.95262,0.00346,0.00605,3,12240,0,26334,0.57632,0.30698,0.53265,100,1,96.684,78,1,3,4328,195192,0,0,0.000,135.869,2.232,0,0.000,245.411,3.418,0,0,1,0,3
PPG,7,364873,14596470587,145,76310,80664,80447.055,216.945,24.469,0,0,0,0,71.43,71.43,2,1,0,100.00,0,1,24,1,1,9,9,0,0,0,1714472450,0.02417,0.01709,0.95068,0.95114,-0.00612,-0.00001,-0.00194,0.00642,0.96132,0.01017,0.00642,3,12246,0,26334,0.57632,0.30698,0.53265,100,1,96.684,78,1,3,2628,195192,0,0,0.000,135.869,2.232,0,0.000,245.411,3.418,0,0,1,0,3
PPG,7,364874,14596510587,123,76336,80723,80449.812,273.188,30.664,0,0,0,0,71.43,71.43,2,1,0,100.00,0,1,24,1,1,10,10,0,0,0,1714514450,0.02466,0.01880,0.94678,0.94728,-0.00558,-0.00028,-0.00034,0.00560,0.96317,0.01203,0.00563,3,12245,0,26334,0.57632,0.30698,0.53265,100,1,96.684,78,1,3,4331,195192,0,0,0.000,135.869,2.232,0,0.000,245.411,3.418,0,0,1,0,3
PPG,7,364875,14596550587,122,76352,80779,80453.102,325.898,38.289,0,0,0,0,71.43,71.43,2,1,0,100.00,0,1,24,1,1,11,11,0,0,0,1714553840,0.02612,0.01367,0.95190,0.95236,-0.00665,-0.00108,-0.00087,0.00679,0.95497,0.00768,0.00701,3,12273,0,26334,0.57632,0.30698,0.53265,100,1,96.684,78,1,3,4329,195192,0,0,0.000,135.869,2.232,0,0.000,245.411,3.418,0,0,1,0,3
PPG,7,364876,14596590587,129,76370,80822,80456.789,365.211,51.656,0,0,0,0,71.43,71.43,2,1,0,100.00,0,1,24,1,1,12,12,0,0,0,1714593208,0.03125,0.02148,0.95093,0.95168,-0.00585,0.00025,-0.00194,0.00617,0.95478,0.00301,0.00719,3,12250,0,26334,0.57632,0.30698,0.53265,100,1,96.684,78,1,3,4318,195192,0,0,0.000,135.869,2.232,0,0.000,245.411,3.418,0,0,1,0,3
PPG,7,364877,14596630587,128,76389,80884,80461.062,422.938,84.586,0,0,0,0,71.43,71.43,2,1,0,100.00,0,1,24,1,1,13,13,0,0,0,1714632501,0.02734,0.01611,0.95776,0.95829,-0.00665,-0.00108,-0.00221,0.00709,0.95829,0.00826,0.00709,3,12258,0,26334,0.57632,0.30698,0.53265,100,1,96.684,78,1,3,2628,195192,0,0,0.000,135.869,2.232,0,0.000,245.411,3.418,0,0,1,0,3
PPG,7,364878,14596670587,124,76407,80979,80466.242,512.758,133.117,0,0,0,0,71.43,71.43,2,1,0,100.00,0,1,24,1,1,14,14,0,0,0,1714674559,0.03174,0.01733,0.95459,0.95527,-0.00585,-0.00001,-0.00061,0.00588,0.95527,0.00450,0.00637,3,12248,0,26334,0.57632,0.30698,0.53265,100,1,96.684,78,1,3,4316,195192,0,0,0.000,135.869,2.232,0,0.000,245.411,3.418,0,0,1,0,3
PPG,7,364879,14596710587,122,76437,81062,80472.203,589.797,185.258,0,0,0,0,71.43,71.43,2,1,0,100.00,0,1,24,1,1,15,15,0,0,0,1714713791,0.02954,0.01685,0.95679,0.95739,-0.00558,0.00052,-0.00087,0.00568,0.95743,0.01043,0.00604,3,12230,0,26334,0.57632,0.30698,0.53265,100,1,96.684,78,1,3,4334,195192,0,0,0.000,135.869,2.232,0,0.000,245.411,3.418,0,0,1,0,3
PPG,7,364880,14596750587,133,76462,81126,80478.742,647.258,235.008,0,0,0,0,71.43,71.43,2,1,0,100.00,0,1,24,1,1,16,16,0,0,0,1714753061,0.02539,0.01587,0.95703,0.95750,-0.00585,0.00025,-0.00007,0.00586,0.95885,0.00588,0.00639,3,12229,0,26334,0.57632,0.30698,0.53265,100,1,96.684,78,1,3,4328,195192,0,0,0.000,135.869,2.232,0,0.000,245.411,3.418,0,0,1,0,3
PPG,7,364881,14596790587,126,76465,81137,80485.328,651.672,278.211,0,0,0,0,71.43,71.43,2,1,0,100.00,0,1,24,1,1,17,17,0,0,0,1714792334,0.02563,0.01294,0.95825,0.95868,-0.00612,0.00025,-0.00194,0.00642,0.95868,0.00308,0.00673,3,12225,0,26334,0.57632,0.30698,0.53265,100,1,96.684,78,1,3,2632,195192,0,0,0.000,135.869,2.232,0,0.000,245.411,3.418,0,0,1,0,3
PPG,7,364882,14596830587,130,76449,81048,80490.953,557.047,300.891,0,0,0,0,71.43,71.43,2,1,0,100.00,0,1,24,1,1,18,18,0,0,0,1714834177,0.02661,0.01904,0.95874,0.95930,-0.00558,0.00025,-0.00167,0.00583,0.95930,0.00652,0.00719,3,12250,0,26334,0.57632,0.30698,0.53265,100,1,96.684,78,1,3,4344,195192,0,0,0.000,135.869,2.232,0,0.000,245.411,3.418,0,0,1,0,3
PPG,7,364883,14596870587,130,76336,80787,80493.914,293.086,280.992,0,0,0,0,71.43,71.43,2,1,0,100.00,0,1,24,1,1,19,19,0,0,0,1714873498,0.02710,0.01636,0.95483,0.95536,-0.00612,-0.00001,-0.00141,0.00628,0.96118,0.01183,0.00628,3,12260,0,26334,0.57632,0.30698,0.53265,100,1,96.684,78,1,3,4341,195192,0,0,0.000,133.119,2.283,0,0.000,245.411,3.418,0,0,1,0,3
PPG,7,364884,14596910587,222,76288,80630,80495.273,134.727,231.453,0,0,0,0,71.43,71.43,2,1,0,100.00,0,1,24,1,1,20,20,0,0,0,1714949487,0.02905,0.02026,0.95068,0.95134,-0.00585,-0.00055,-0.00194,0.00619,0.95197,0.00339,0.00619,2,61224,0,26339,0.57632,0.30698,0.53265,100,1,96.684,78,1,3,61202,195192,0,0,0.000,133.119,2.283,0,0.000,245.411,3.418,0,0,1,0,3
PPG,7,364885,14596950587,122,76300,80671,80497.031,173.969,170.852,0,0,0,0,71.43,71.43,2,1,0,100.00,0,1,24,1,1,21,21,0,0,0,1714961963,0.03369,0.01904,0.95142,0.95220,-0.00585,-0.00001,-0.00167,0.00609,0.95220,0.00086,0.00609,1,12476,0,26339,0.57632,0.30698,0.53265,100,1,96.684,78,1,3,12464,195192,0,0,0.000,133.119,2.283,0,0.000,245.411,3.418,0,0,1,0,3
PPG,7,364886,14596990587,123,76344,80798,80500.039,297.961,112.938,0,0,0,0,71.43,71.43,2,1,0,100.00,0,1,24,1,1,22,22,0,0,0,1714998567,0.02515,0.02002,0.95361,0.95415,-0.00505,0.00025,-0.00141,0.00525,0.95415,0.00314,0.00570,3,12212,0,26339,0.57632,0.30698,0.53265,100,1,96.684,78,1,3,2589,195192,0,0,0.000,133.119,2.283,0,0.000,245.411,3.418,0,0,1,0,3
PPG,7,364887,14597030587,124,76377,80919,80504.227,414.773,63.008,0,0,0,0,71.43,71.43,2,1,0,100.00,0,1,24,1,1,23,23,0,0,0,1715034992,0.02808,0.01636,0.95386,0.95441,-0.00505,-0.00028,-0.00114,0.00519,0.95441,0.00152,0.00519,3,12113,0,26339,0.57632,0.30698,0.53265,100,1,96.684,78,1,3,4298,195192,0,0,0.000,133.119,2.283,0,0.000,245.411,3.418,0,0,1,0,3
PPG,7,364888,14597070587,155,76412,81020,80509.383,510.617,23.898,0,0,0,0,71.43,71.43,2,1,0,100.00,0,1,24,1,1,24,24,0,0,0,1715074033,0.02197,0.02197,0.94727,0.94778,-0.00638,0.00105,-0.00167,0.00668,0.95656,0.00728,0.00668,3,12197,0,26339,0.57632,0.30698,0.53265,100,1,96.684,78,1,3,4304,195192,0,0,0.000,133.119,2.283,0,0.000,245.411,3.418,0,0,1,0,3
PPG,7,364889,14597110587,123,76445,81080,80515.086,564.914,4.523,0,0,0,0,71.43,71.43,2,1,0,100.00,0,1,24,1,1,25,25,0,0,0,1715113064,0.02808,0.01636,0.94849,0.94904,-0.00585,0.00079,-0.00141,0.00607,0.95300,0.00523,0.00607,3,12112,0,26339,0.57632,0.30698,0.53265,100,1,96.684,78,1,3,4301,195192,0,0,0.000,133.119,2.283,0,0.000,245.411,3.418,0,0,1,0,3
PPG,7,364890,14597150587,124,76434,81071,80520.648,550.352,18.789,1,0,0,0,71.43,71.43,2,1,0,100.00,0,1,24,1,1,26,26,0,0,0,1715152007,0.02734,0.01733,0.95557,0.95611,-0.00585,-0.00081,-0.00167,0.00614,0.95611,0.00632,0.00614,3,12124,0,26339,0.57632,0.30698,0.53265,100,1,96.684,78,1,3,2595,195192,0,0,0.000,133.119,2.283,0,294.578,245.411,3.418,1,0,1,0,3
PPG,7,364891,14597190587,126,76424,81050,80525.945,524.055,52.742,0,0,0,0,71.43,71.43,2,1,0,100.00,0,1,24,1,1,27,27,0,0,0,1715200350,0.02686,0.01807,0.95166,0.95221,-0.00612,0.00132,-0.00141,0.00641,0.95752,0.00531,0.00641,3,18836,0,26339,0.57632,0.30698,0.53265,100,1,96.684,78,1,3,14473,195192,0,0,0.000,133.119,2.283,0,0.000,245.411,3.418,0,0,1,0,3
PPG,7,364892,14597230587,144,76415,81067,80531.359,535.641,84.859,0,0,0,0,71.43,71.43,2,1,0,100.00,0,1,24,1,1,28,28,0,0,0,1715236807,0.02734,0.01538,0.95361,0.95413,-0.00585,0.00025,-0.00114,0.00597,0.95453,0.00843,0.00642,3,12132,0,26339,0.57632,0.30698,0.53265,100,1,96.684,78,1,3,2590,195192,0,0,0.000,133.119,2.283,0,0.000,245.411,3.418,0,0,1,0,3
PPG,7,364893,14597270587,122,76435,81092,80536.969,555.031,105.461,0,0,0,0,71.43,71.43,2,1,0,100.00,0,1,24,1,1,29,29,0,0,0,1715273223,0.02783,0.01904,0.95264,0.95323,-0.00532,-0.00028,-0.00167,0.00558,0.95539,0.00215,0.00642,3,12155,0,26339,0.57632,0.30698,0.53265,100,1,96.684,78,1,3,4343,195192,0,0,0.000,133.119,2.283,0,0.000,245.411,3.418,0,0,1,0,3
PPG,7,364894,14597310587,124,76432,81121,80542.812,578.188,114.422,0,0,0,0,71.43,71.43,2,1,0,100.00,0,1,24,1,1,30,30,0,0,0,1715312250,0.02808,0.01758,0.95508,0.95565,-0.00612,0.00025,-0.00194,0.00642,0.95785,0.00661,0.00662,3,12129,0,26339,0.57632,0.30698,0.53265,100,1,96.684,78,1,3,2596,195192,0,0,0.000,133.119,2.283,0,0.000,245.411,3.418,0,0,1,0,3
PPG,7,364895,14597350587,131,76435,81148,80548.867,599.133,114.258,0,0,0,0,71.43,71.43,2,1,0,100.00,0,1,24,1,1,31,31,0,0,0,1715353896,0.02539,0.01221,0.96069,0.96111,-0.00585,-0.00028,-0.00194,0.00617,0.96111,0.00839,0.00676,3,12130,0,26339,0.57632,0.30698,0.53265,100,1,96.684,78,1,3,4299,195192,0,0,0.000,124.913,2.453,0,0.000,235.051,3.597,0,0,1,0,3
PPG,7,364896,14597390587,505,76461,81187,80555.250,631.750,111.289,0,0,0,0,71.43,71.43,2,1,0,100.00,0,1,24,1,1,0,0,0,0,0,1715392958,0.02954,0.01611,0.95361,0.95421,-0.00665,-0.00108,-0.00167,0.00694,0.95680,0.00430,0.00708,3,12121,0,26339,0.59695,0.27359,0.45832,100,1,98.542,78,1,3,2599,195192,0,0,0.000,124.913,2.453,0,0.000,235.051,3.597,0,0,1,0,3
PPG,7,364897,14597430587,170,76457,81218,80561.875,656.125,115.594,0,0,0,0,71.43,71.43,2,1,0,100.00,0,1,24,1,1,1,1,0,0,0,1715434962,0.02905,0.01953,0.95630,0.95694,-0.00665,0.00132,-0.00194,0.00705,0.95694,0.00381,0.00705,3,12121,0,26339,0.59695,0.27359,0.45832,100,1,98.542,78,1,3,4301,195192,0,0,0.000,124.913,2.453,0,0.000,235.051,3.597,0,0,1,0,3
PPG,7,364898,14597470587,135,76467,81257,80568.828,688.172,131.258,0,0,0,0,71.43,71.43,2,1,0,100.00,0,1,24,1,1,2,2,0,0,0,1715473974,0.02930,0.01733,0.95386,0.95446,-0.00558,-0.00055,-0.00061,0.00564,0.95601,0.00136,0.00738,3,12113,0,26339,0.59695,0.27359,0.45832,100,1,98.542,78,1,3,4299,195192,0,0,0.000,124.913,2.453,0,0.000,235.051,3.597,0,0,1,0,3
PPG,7,364899,14597510587,121,76487,81298,80576.117,721.883,152.461,0,0,0,0,71.43,71.43,2,1,0,100.00,0,1,24,1,1,3,3,0,0,0,1715513376,0.02637,0.01758,0.95850,0.95902,-0.00558,-0.00055,-0.00114,0.00573,0.95902,0.00480,0.00581,3,12310,0,26339,0.59695,0.27359,0.45832,100,1,98.542,78,1,3,4295,195192,0,0,0.000,124.913,2.453,0,0.000,235.051,3.597,0,0,1,0,3
PPG,7,364900,14597550587,122,76505,81360,80583.953,776.047,179.047,0,0,0,0,71.43,71.43,2,1,0,100.00,0,1,24,1,1,4,4,0,0,0,1715552367,0.02515,0.01538,0.95459,0.95504,-0.00505,-0.00055,-0.00194,0.00544,0.95993,0.00488,0.00639,3,12115,0,26339,0.59695,0.27359,0.45832,100,1,98.542,78,1,3,2599,195192,0,0,0.000,124.913,2.453,0,0.000,235.051,3.597,0,0,1,0,3
PPG,7,364901,14597590587,120,76489,81311,80591.227,719.773,197.492,0,0,0,0,71.43,71.43,2,1,0,100.00,0,1,24,1,1,5,5,0,0,0,1715593933,0.02856,0.01465,0.95068,0.95123,-0.00692,0.00025,-0.00194,0.00719,0.95709,0.00788,0.00719,3,12146,0,26339,0.59695,0.27359,0.45832,100,1,98.542,78,1,3,4309,195192,0,0,0.000,124.913,2.453,0,0.000,235.051,3.597,0,0,1,0,3
PPG,7,364902,14597630587,130,76419,81160,80596.914,563.086,193.609,0,0,0,0,71.43,71.43,2,1,0,100.00,0,1,24,1,1,6,6,0,0,0,1715632997,0.03174,0.01514,0.95361,0.95426,-0.00585,0.00025,-0.00141,0.00602,0.95489,0.00367,0.00602,3,12112,0,26339,0.59695,0.27359,0.45832,100,1,98.542,78,1,3,2594,195192,0,0,0.000,116.293,2.660,0,0.000,223.477,3.821,0,0,1,0,3
PPG,7,364903,14597670587,120,76381,81023,80601.172,421.828,158.383,0,0,0,0,71.43,71.43,2,1,0,100.00,0,1,24,1,1,7,7,0,0,0,1715674617,0.02979,0.01685,0.95239,0.95301,-0.00558,0.00052,-0.00194,0.00593,0.96192,0.00892,0.00594,3,12117,0,26339,0.59695,0.27359,0.45832,100,1,98.542,78,1,3,4297,195192,0,0,0.000,116.293,2.660,0,0.000,223.477,3.821,0,0,1,0,3
PPG,7,364904,14597710587,129,76366,80999,80605.148,393.852,108.641,0,0,0,0,71.43,71.43,2,1,0,100.00,0,1,24,1,1,8,8,0,0,0,1715714081,0.02979,0.01587,0.94653,0.94713,-0.00665,-0.00055,-0.00247,0.00712,0.95307,0.00402,0.00712,3,12270,0,26339,0.59695,0.27359,0.45832,100,1,98.542,78,1,3,4340,195192,0,0,0.000,116.293,2.660,0,0.000,223.477,3.821,0,0,1,0,3
PPG,7,364905,14597750587,120,76406,81101,80610.109,490.891,64.859,0,0,0,0,71.43,71.43,2,1,0,100.00,0,1,24,1,1,9,9,0,0,0,1715753387,0.02490,0.01685,0.95117,0.95165,-0.00532,-0.00108,-0.00221,0.00586,0.95165,0.00344,0.00654,3,12263,0,26339,0.59695,0.27359,0.45832,100,1,98.542,78,1,3,4349,195192,0,0,0.000,116.293,2.660,0,0.000,223.477,3.821,0,0,1,0,3
PPG,7,364906,14597790587,125,76445,81215,80616.156,598.844,32.148,0,0,0,0,71.43,71.43,2,1,0,100.00,0,1,24,1,1,10,10,0,0,0,1715792751,0.02588,0.01465,0.95386,0.95432,-0.00558,-0.00081,-0.00194,0.00597,0.95432,0.00918,0.00667,3,12344,0,26339,0.59695,0.27359,0.45832,100,1,98.542,78,1,3,2619,195192,0,0,0.000,116.293,2.660,0,0.000,223.477,3.821,0,0,1,0,3
PPG,7,364907,14597830587,126,76478,81278,80622.773,655.227,2.492,0,0,0,0,71.43,71.43,2,1,0,100.00,0,1,24,1,1,11,11,0,0,0,1715834719,0.02832,0.02271,0.94849,0.94918,-0.00585,-0.00028,-0.00114,0.00597,0.96072,0.00720,0.00660,3,12249,0,26339,0.59695,0.27359,0.45832,100,1,98.542,78,1,3,4338,195192,0,0,0.000,116.293,2.660,0,0.000,223.477,3.821,0,0,1,0,3
PPG,7,364908,14597870587,126,76470,81280,80629.344,650.656,-14.938,0,0,0,0,71.43,71.43,2,1,0,100.00,0,1,24,1,1,12,12,0,0,0,1715874056,0.02734,0.01929,0.95313,0.95371,-0.00638,0.00025,-0.00141,0.00654,0.95486,0.00568,0.00654,3,12248,0,26339,0.59695,0.27359,0.45832,100,1,98.542,78,1,3,4341,195192,0,0,0.000,116.293,2.660,0,0.000,223.477,3.821,0,0,1,0,3
PPG,7,364909,14597910587,123,76474,81278,80635.828,642.172,-7.992,0,0,0,0,71.43,71.43,2,1,0,100.00,0,1,24,1,1,13,13,0,0,0,1715913447,0.02661,0.01782,0.95532,0.95586,-0.00612,-0.00055,-0.00194,0.00644,0.95586,0.00371,0.00644,3,12247,0,26339,0.59695,0.27359,0.45832,100,1,98.542,78,1,3,4346,195192,0,0,0.000,116.293,2.660,0,0.000,223.477,3.821,0,0,1,0,3
PPG,7,364910,14597950587,123,76454,81280,80642.273,637.727,18.281,0,0,0,0,71.43,71.43,2,1,0,100.00,0,1,24,1,1,14,14,0,0,0,1715952755,0.02759,0.01147,0.95264,0.95311,-0.00505,-0.00028,-0.00114,0.00519,0.95584,0.01099,0.00669,3,12240,0,26339,0.59695,0.27359,0.45832,100,1,98.542,78,1,3,2618,195192,0,0,0.000,116.293,2.660,0,0.000,223.477,3.821,0,0,1,0,3
PPG,7,364911,14597990587,122,76465,81305,80648.898,656.102,49.242,0,0,0,0,71.43,71.43,2,1,0,100.00,0,1,24,1,1,15,15,0,0,0,1715994764,0.02905,0.01831,0.94873,0.94935,-0.00585,-0.00028,-0.00114,0.00597,0.95755,0.00645,0.00631,3,12310,0,26339,0.59695,0.27359,0.45832,100,1,98.542,78,1,3,4341,195192,0,0,0.000,116.293,2.660,0,0.000,223.477,3.821,0,0,1,0,3
PPG,7,364912,14598030587,197,76483,81356,80655.969,700.031,71.219,0,0,0,0,71.43,71.43,2,1,0,100.00,0,1,24,1,1,16,16,0,0,0,1716034051,0.02759,0.01953,0.95410,0.95470,-0.00692,-0.00055,-0.00167,0.00714,0.95470,0.00847,0.00714,3,12188,0,26339,0.59695,0.27359,0.45832,100,1,98.542,78,1,3,4317,195192,0,0,0.000,116.293,2.660,0,0.000,223.477,3.821,0,0,1,0,3
PPG,7,364913,14598070587,121,76469,81347,80662.883,684.117,77.328,0,0,0,0,71.43,71.43,2,1,0,100.00,0,1,24,1,1,17,17,0,0,0,1716073496,0.02954,0.02002,0.95410,0.95477,-0.00638,-0.00081,-0.00194,0.00672,0.95477,0.00155,0.00672,3,12233,0,26339,0.59695,0.27359,0.45832,100,1,98.542,78,1,3,4337,195192,0,0,0.000,116.293,2.660,0,0.000,223.477,3.821,0,0,1,0,3
PPG,7,364914,14598110587,130,76458,81330,80669.555,660.445,74.312,0,0,0,0,71.43,71.43,2,1,0,100.00,0,1,24,1,1,18,18,0,0,0,1716112796,0.02686,0.01636,0.95605,0.95657,-0.00585,-0.00028,-0.00167,0.00609,0.95704,0.00578,0.00609,3,12225,0,26339,0.59695,0.27359,0.45832,100,1,98.542,78,1,3,2648,195192,0,0,0.000,109.631,2.846,0,0.000,213.636,4.034,0,0,1,0,3
PPG,7,364915,14598150587,121,76461,81334,80676.195,657.805,72.719,0,0,0,0,71.43,71.43,2,1,0,100.00,0,1,24,1,1,19,19,0,0,0,1716154789,0.02832,0.01343,0.95532,0.95584,-0.00505,-0.00028,-0.00221,0.00552,0.95887,0.00793,0.00654,3,12249,0,26339,0.59695,0.27359,0.45832,100,1,98.542,78,1,3,4317,195192,0,0,0.000,109.631,2.846,0,0.000,213.636,4.034,0,0,1,0,3
PPG,7,364916,14598190587,127,76451,81325,80682.680,642.320,72.539,0,0,0,0,71.43,71.43,2,1,0,100.00,0,1,24,1,1,20,20,0,0,0,1716201089,0.02588,0.02051,0.95557,0.95614,-0.00585,0.00025,-0.00114,0.00597,0.95614,0.00554,0.00597,3,19263,0,26339,0.59695,0.27359,0.45832,100,1,98.542,78,1,3,14868,195192,0,0,0.000,109.631,2.846,0,0.000,213.636,4.034,0,0,1,0,3
PPG,7,364917,14598230587,130,76465,81338,80689.234,648.766,74.820,0,0,0,0,71.43,71.43,2,1,0,100.00,0,1,24,1,1,21,21,0,0,0,1716237815,0.03027,0.01880,0.95654,0.95721,-0.00585,-0.00001,-0.00141,0.00602,0.95721,0.00831,0.00748,3,12245,0,26339,0.59695,0.27359,0.45832,100,1,98.542,78,1,3,2624,195192,0,0,0.000,109.631,2.846,0,0.000,213.636,4.034,0,0,1,0,3
PPG,7,364918,14598270587,130,76462,81359,80695.930,663.070,77.438,0,0,0,0,71.43,71.43,2,1,0,100.00,0,1,24,1,1,22,22,0,0,0,1716274436,0.02734,0.01855,0.95044,0.95101,-0.00612,-0.00081,-0.00274,0.00675,0.95284,0.00436,0.00675,3,12232,0,26339,0.59695,0.27359,0.45832,100,1,98.542,78,1,3,4345,195192,0,0,0.000,100.208,3.158,0,0.000,213.636,4.034,0,0,1,0,3
PPG,7,364919,14598310587,123,76485,81388,80702.852,685.148,77.508,0,0,0,0,71.43,71.43,2,1,0,100.00,0,1,24,1,1,23,23,0,0,0,1716313781,0.02710,0.01514,0.95215,0.95265,-0.00505,-0.00081,-0.00194,0.00547,0.95265,0.00151,0.00628,3,12151,0,26339,0.59695,0.27359,0.45832,100,1,98.542,78,1,3,4305,195192,0,0,0.000,100.208,3.158,0,0.000,213.636,4.034,0,0,1,0,3
PPG,7,364920,14598350587,132,76430,81257,80708.391,548.609,69.797,0,0,0,0,71.43,71.43,2,1,0,100.00,0,1,24,1,1,24,24,0,0,0,1716352909,0.03003,0.01465,0.95801,0.95859,-0.00665,-0.00028,-0.00167,0.00686,0.95864,0.01083,0.00686,3,12131,0,26339,0.59695,0.27359,0.45832,100,1,98.542,78,1,3,2595,195192,0,0,0.000,91.788,3.501,0,0.000,196.747,4.462,0,0,1,0,3
PPG,7,364921,14598390587,503,76285,80869,80710.000,159.000,26.039,0,0,0,0,71.43,71.43,2,1,0,100.00,0,1,24,1,1,25,25,0,0,0,1716394540,0.03003,0.02173,0.95361,0.95433,-0.00612,0.00025,-0.00114,0.00623,0.95845,0.00273,0.00662,3,12121,0,26339,0.66271,0.19781,0.29848,100,1,nan,78,1,3,4299,195192,0,0,0.000,91.788,3.501,0,0.000,196.747,4.462,0,0,1,0,3
PPG,7,364922,14598430587,174,76198,80648,80709.383,-61.383,-46.359,0,0,0,0,71.43,71.43,2,1,0,100.00,0,1,24,1,1,26,26,0,0,0,1716433961,0.02417,0.01440,0.95630,0.95671,-0.00612,-0.00055,-0.00167,0.00637,0.95996,0.00354,0.00712,3,12143,0,26339,0.66271,0.19781,0.29848,100,1,nan,78,1,3,4301,195192,0,0,0.000,91.788,3.501,0,0.000,196.747,4.462,0,0,1,0,3
PPG,7,364923,14598470587,122,76220,80709,80709.383,-0.383,-118.656,0,0,0,0,71.43,71.43,2,1,0,100.00,0,1,24,1,1,27,27,0,0,0,1716472960,0.02710,0.01514,0.94849,0.94899,-0.00558,-0.00028,-0.00141,0.00577,0.96367,0.01027,0.00651,3,12131,0,26339,0.66271,0.19781,0.29848,100,1,nan,78,1,3,2598,195192,0,0,0.000,91.788,3.501,0,0.000,196.747,4.462,0,0,1,0,3
PPG,7,364924,14598510587,124,76256,80790,80710.188,79.812,-186.492,0,0,0,0,71.43,71.43,2,1,0,100.00,0,1,24,1,1,28,28,0,0,0,1716514546,0.02661,0.02002,0.95947,0.96005,-0.00505,-0.00028,-0.00274,0.00575,0.96005,0.00679,0.00646,3,12140,0,26339,0.66271,0.19781,0.29848,100,1,nan,78,1,3,4297,195192,0,0,0.000,91.788,3.501,0,0.000,196.747,4.462,0,0,1,0,3
PPG,7,364925,14598550587,127,76294,80918,80712.266,205.734,-240.344,0,0,0,0,71.43,71.43,2,1,0,100.00,0,1,24,1,1,29,29,0,0,0,1716553558,0.03076,0.01758,0.94873,0.94939,-0.00505,-0.00001,-0.00087,0.00513,0.95472,0.00591,0.00672,3,12113,0,26339,0.66271,0.19781,0.29848,100,1,nan,78,1,3,2599,195192,0,0,0.000,91.788,3.501,0,0.000,196.747,4.462,0,0,1,0,3
PPG,7,364926,14598590587,124,76342,81057,80715.711,341.289,-279.727,0,0,0,0,71.43,71.43,2,1,0,100.00,0,1,24,1,1,30,30,0,0,0,1716595091,0.02905,0.01880,0.95117,0.95180,-0.00665,0.00052,-0.00114,0.00677,0.95916,0.00736,0.00706,3,12115,0,26339,0.66271,0.19781,0.29848,100,1,nan,78,1,3,4299,195192,0,0,0.000,91.788,3.501,0,0.000,196.747,4.462,0,0,1,0,3
PPG,7,364927,14598630587,123,76354,81107,80719.625,387.375,-292.609,0,0,0,0,71.43,71.43,2,1,0,100.00,0,1,24,1,1,31,31,0,0,0,1716634032,0.02930,0.01514,0.94946,0.95004,-0.00612,0.00025,-0.00034,0.00613,0.95005,0.00418,0.00613,3,12116,0,26339,0.66271,0.19781,0.29848,100,1,nan,78,1,3,4296,195192,0,0,0.000,91.788,3.501,0,0.000,196.747,4.462,0,0,1,0,3
PPG,7,364928,14598670587,124,76347,81083,80723.258,359.742,-252.188,0,0,0,0,71.43,71.43,2,1,0,100.00,0,1,24,1,1,0,0,0,0,0,1716672965,0.02832,0.01904,0.95020,0.95081,-0.00558,-0.00028,-0.00114,0.00571,0.95850,0.00847,0.00628,3,12138,0,26339,0.66271,0.19781,0.29848,100,1,nan,78,1,3,2602,195192,0,0,0.000,91.788,3.501,0,0.000,196.747,4.462,0,0,1,0,3
PPG,7,364929,14598710587,124,76334,81088,80726.906,361.094,-179.828,0,0,0,0,71.43,71.43,2,1,0,100.00,0,1,24,1,1,1,1,0,0,0,1716714595,0.03101,0.01929,0.95313,0.95382,-0.00479,0.00052,-0.00167,0.00510,0.95507,0.00266,0.00544,3,12140,0,26339,0.66271,0.19781,0.29848,100,1,nan,78,1,3,4296,195192,0,0,0.000,91.788,3.501,0,0.000,196.747,4.462,0,0,1,0,3
PPG,7,364930,14598750587,124,76371,81151,80731.148,419.852,-110.242,0,0,0,0,71.43,71.43,2,1,0,100.00,0,1,24,1,1,2,2,0,0,0,1716753540,0.02930,0.01611,0.95215,0.95274,-0.00532,-0.00135,-0.00087,0.00555,0.95274,0.00304,0.00673,3,12121,0,26339,0.66271,0.19781,0.29848,100,1,nan,78,1,3,2596,195192,0,0,0.000,91.788,3.501,0,0.000,196.747,4.462,0,0,1,0,3
PPG,7,364931,14598790587,123,76374,81209,80735.930,473.070,-45.578,0,0,0,0,71.43,71.43,2,1,0,100.00,0,1,24,1,1,3,3,0,0,0,1716795046,0.02759,0.01855,0.95386,0.95444,-0.00665,-0.00081,-0.00114,0.00680,0.95640,0.00282,0.00680,3,12113,0,26339,0.66271,0.19781,0.29848,100,1,nan,78,1,3,4296,195192,0,0,0.000,91.788,3.501,0,0.000,196.747,4.462,0,0,1,0,3
PPG,7,364932,14598830587,123,76406,81297,80741.539,555.461,11.508,0,0,0,0,71.43,71.43,2,1,0,100.00,0,1,24,1,1,4,4,0,0,0,1716834019,0.02686,0.01489,0.94995,0.95045,-0.00665,-0.00055,-0.00087,0.00673,0.95926,0.01016,0.00810,3,12116,0,26339,0.66271,0.19781,0.29848,100,1,nan,78,1,3,4295,195192,0,0,0.000,91.788,3.501,0,0.000,196.747,4.462,0,0,1,0,3
PPG,7,364933,14598870587,123,76438,81340,80747.523,592.477,52.289,0,0,0,0,71.43,71.43,2,1,0,100.00,0,1,24,1,1,5,5,0,0,0,1716872960,0.02808,0.01416,0.95288,0.95340,-0.00585,-0.00028,-0.00087,0.00592,0.95745,0.00417,0.00677,3,12139,0,26339,0.66271,0.19781,0.29848,100,1,nan,78,1,3,2599,195192,0,0,0.000,91.788,3.501,0,0.000,196.747,4.462,0,0,1,0,3
PPG,7,364934,14598910587,124,76424,81411,80754.156,656.844,91.672,0,0,0,0,71.43,71.43,2,1,0,100.00,0,1,24,1,1,6,6,0,0,0,1716914566,0.02686,0.01831,0.95654,0.95710,-0.00692,-0.00028,-0.00141,0.00706,0.95710,0.00191,0.00706,3,12159,0,26339,0.66271,0.19781,0.29848,100,1,nan,78,1,3,4299,195192,0,0,0.000,91.788,3.501,0,0.000,196.747,4.462,0,0,1,0,3
PPG,7,364935,14598950587,123,76465,81477,80761.383,715.617,140.812,0,0,0,0,71.43,71.43,2,1,0,100.00,0,1,24,1,1,7,7,0,0,0,1716953504,0.02979,0.01514,0.95117,0.95176,-0.00638,0.00025,-0.00247,0.00685,0.95473,0.00238,0.00685,3,12117,0,26339,0.66271,0.19781,0.29848,100,1,nan,78,1,3,2597,195192,0,0,0.000,91.788,3.501,0,0.000,196.747,4.462,0,0,1,0,3
PPG,7,364936,14598990587,125,76480,81511,80768.883,742.117,191.938,0,0,0,0,71.43,71.43,2,1,0,100.00,0,1,24,1,1,8,8,0,0,0,1716995072,0.02588,0.02002,0.95093,0.95149,-0.00665,-0.00108,-0.00221,0.00709,0.96041,0.00892,0.00713,3,12122,0,26339,0.66271,0.19781,0.29848,100,1,nan,78,1,3,4298,195192,0,0,0.000,91.788,3.501,0,0.000,196.747,4.462,0,0,1,0,3
PPG,7,364937,14599030587,123,76492,81545,80776.641,768.359,237.867,0,0,0,0,71.43,71.43,2,1,0,100.00,0,1,24,1,1,9,9,0,0,0,1717034093,0.02563,0.02148,0.95508,0.95566,-0.00585,-0.00055,-0.00194,0.00619,0.95566,0.00254,0.00662,3,12116,0,26339,0.66271,0.19781,0.29848,100,1,nan,78,1,3,4298,195192,0,0,0.000,91.788,3.501,0,0.000,196.747,4.462,0,0,1,0,3
PPG,7,364938,14599070587,124,76501,81543,80784.305,758.695,276.391,0,0,0,0,71.43,71.43,2,1,0,100.00,0,1,24,1,1,10,10,0,0,0,1717073008,0.02759,0.01880,0.95313,0.95371,-0.00638,0.00025,-0.00114,0.00649,0.95548,0.00906,0.00682,3,12115,0,26339,0.66271,0.19781,0.29848,100,1,nan,78,1,3,2595,195192,0,0,0.000,91.788,3.501,0,0.000,196.747,4.462,0,0,1,0,3
PPG,7,364939,14599110587,123,76405,81349,80789.953,559.047,285.758,0,0,0,0,71.43,71.43,2,1,0,100.00,0,1,24,1,1,11,11,0,0,0,1717114587,0.03076,0.01807,0.94580,0.94647,-0.00505,-0.00135,-0.00114,0.00535,0.95584,0.00937,0.00611,3,12148,0,26339,0.66271,0.19781,0.29848,100,1,nan,78,1,3,4310,195192,0,0,0.000,91.788,3.501,0,0.000,196.747,4.462,0,0,1,0,3
PPG,7,364940,14599150587,138,76220,80845,80790.500,54.500,235.648,0,1,0,0,71.43,71.43,2,1,0,100.00,0,1,24,1,1,12,12,0,0,0,1717153558,0.02905,0.01245,0.95435,0.95487,-0.00612,-0.00135,-0.00141,0.00642,0.95487,0.00576,0.00642,3,12118,0,26339,0.66271,0.19781,0.29848,100,1,nan,78,1,3,2599,195192,0,0,0.000,91.788,3.501,0,0.000,196.747,4.462,0,0,1,0,3
PPG,7,364941,14599190587,130,76052,80437,80786.969,-349.969,118.109,0,0,0,0,71.43,71.43,2,1,0,100.00,0,1,24,1,1,13,13,0,0,0,1717201807,0.02686,0.01904,0.96313,0.96370,-0.00665,-0.00188,-0.00141,0.00705,0.96370,0.00624,0.00705,3,18825,0,26339,0.66271,0.19781,0.29848,100,1,nan,78,1,3,14465,195192,0,0,0.000,91.788,3.501,0,0.000,196.747,4.462,0,0,1,0,3
PPG,7,364942,14599230587,128,76033,80372,80782.820,-410.820,-25.953,0,0,0,0,71.43,71.43,2,1,0,100.00,0,1,24,1,1,14,14,0,0,0,1717238280,0.02856,0.01465,0.95923,0.95977,-0.00612,-0.00055,-0.00141,0.00630,0.95977,0.01255,0.00697,3,12117,0,26339,0.66271,0.19781,0.29848,100,1,nan,78,1,3,2595,195192,0,0,0.000,91.788,3.501,0,0.000,196.747,4.462,0,0,1,0,3
PPG,7,364943,14599270587,124,76076,80435,80779.344,-344.344,-165.961,0,0,0,0,71.43,71.43,2,1,0,100.00,0,1,24,1,1,15,15,0,0,0,1717274614,0.03003,0.01172,0.95508,0.95562,-0.00532,-0.00001,-0.00141,0.00550,0.95562,0.00950,0.00594,3,12110,0,26339,0.66271,0.19781,0.29848,100,1,nan,78,1,3,4295,195192,0,0,0.000,91.788,3.501,0,0.000,196.747,4.462,0,0,1,0,3
PPG,7,364944,14599310587,177,76112,80581,80777.359,-196.359,-293.227,0,0,0,0,71.43,71.43,2,1,0,100.00,0,1,24,1,1,16,16,0,0,0,1717313540,0.02441,0.01929,0.95093,0.95144,-0.00585,-0.00055,-0.00087,0.00594,0.95603,0.00459,0.00685,3,12121,0,26339,0.66271,0.19781,0.29848,100,1,nan,78,1,3,2623,195192,0,0,0.000,91.788,3.501,0,0.000,196.747,4.462,0,0,1,0,3
PPG,7,364945,14599350587,128,76177,80774,80777.328,-3.328,-395.891,0,0,0,0,71.43,71.43,2,1,0,100.00,0,1,24,1,1,17,17,0,0,0,1717355247,0.02637,0.01343,0.94946,0.94992,-0.00558,0.00079,-0.00221,0.00606,0.95342,0.00757,0.00662,3,12123,0,26339,0.66271,0.19781,0.29848,100,1,nan,78,1,3,4297,195192,0,0,0.000,91.788,3.501,0,0.000,196.747,4.462,0,0,1,0,3
PPG,7,364946,14599390587,521,76210,80854,80778.094,75.906,-456.453,0,0,0,0,71.43,71.43,2,1,0,100.00,0,1,24,1,1,18,18,0,0,0,1717394158,0.02954,0.01831,0.94507,0.94571,-0.00665,0.00052,-0.00114,0.00677,0.95829,0.01259,0.00677,3,12111,0,26339,0.55515,0.17462,0.31454,100,1,nan,57,1,3,4299,195192,0,0,0.000,91.788,3.501,0,0.000,196.747,4.462,0,0,1,0,3
PPG,7,364947,14599430587,217,76223,80903,80779.344,123.656,-437.961,1,0,1,0,0.00,nan,1,2,0,100.00,0,1,24,1,1,19,19,0,0,0,1717433768,0.03003,0.01880,0.95459,0.95525,-0.00585,0.00025,-0.00167,0.00609,0.95825,0.00984,0.00647,3,12345,0,26339,0.55515,0.17462,0.31454,100,1,nan,57,1,3,2652,195192,0,0,207.430,91.788,3.501,1,578.367,196.747,4.462,1,1,1,0,1
PPG,7,364948,14599470587,116,76262,80950,80781.047,168.953,-358.031,0,0,0,0,0.00,nan,1,2,0,100.00,0,1,24,1,1,20,20,0,0,0,1717478471,0.02734,0.01538,0.95459,0.95511,-0.00665,-0.00028,-0.00141,0.00680,0.95511,0.00032,0.00714,3,12109,0,26340,0.55515,0.17462,0.31454,100,1,nan,57,1,3,2586,195192,0,0,0.000,91.299,3.381,0,0.000,195.684,4.335,0,0,1,0,1
PPG,7,364949,14599510587,118,76255,80983,80783.062,199.938,-265.492,0,0,0,0,0.00,nan,1,2,0,100.00,0,1,24,1,1,21,21,0,0,0,1717514816,0.02954,0.01660,0.95215,0.95275,-0.00612,0.00132,-0.00221,0.00664,0.95745,0.00489,0.00698,3,12121,0,26340,0.55515,0.17462,0.31454,100,1,nan,57,1,3,4303,195192,0,0,0.000,91.299,3.381,0,0.000,195.684,4.335,0,0,1,0,1
PPG,7,364950,14599550587,118,76288,81054,80785.773,268.227,-172.211,0,0,0,0,0.00,nan,1,2,0,100.00,0,1,24,1,1,22,22,0,0,0,1717553875,0.03027,0.01489,0.95508,0.95567,-0.00638,0.00025,-0.00114,0.00649,0.95567,0.00648,0.00708,3,12118,0,26340,0.55515,0.17462,0.31454,100,1,nan,57,1,3,2621,195192,0,0,0.000,91.299,3.381,0,0.000,195.684,4.335,0,0,1,0,1
PPG,7,364951,14599590587,115,76328,81162,80789.539,372.461,-86.859,0,0,0,0,0.00,nan,1,2,0,100.00,0,1,24,1,1,23,23,0,0,0,1717595592,0.02954,0.01709,0.94922,0.94983,-0.00558,0.00025,-0.00167,0.00583,0.95786,0.00803,0.00670,3,12239,0,26340,0.55515,0.17462,0.31454,100,1,nan,57,1,3,4303,195192,0,0,0.000,91.299,3.381,0,0.000,195.684,4.335,0,0,1,0,1
PPG,7,364952,14599630587,115,76348,81243,80794.070,448.930,-17.164,0,0,0,0,0.00,nan,1,2,0,100.00,0,1,24,1,1,24,24,0,0,0,1717634616,0.02856,0.01562,0.95361,0.95417,-0.00585,-0.00028,-0.00114,0.00597,0.95857,0.00874,0.00642,3,12233,0,26340,0.55515,0.17462,0.31454,100,1,nan,57,1,3,4373,195192,0,0,0.000,91.299,3.381,0,0.000,195.684,4.335,0,0,1,0,1
PPG,7,364953,14599670587,117,76380,81328,80799.406,528.594,51.148,0,0,0,0,0.00,nan,1,2,0,100.00,0,1,24,1,1,25,25,0,0,0,1717673978,0.02612,0.01904,0.95435,0.95489,-0.00532,-0.00081,-0.00114,0.00550,0.95803,0.00541,0.00698,3,12248,0,26340,0.55515,0.17462,0.31454,100,1,nan,57,1,3,2625,195192,0,0,0.000,91.299,3.381,0,0.000,195.684,4.335,0,0,1,0,1
PPG,7,364954,14599710587,116,76404,81441,80805.820,635.180,126.508,0,0,0,0,0.00,nan,1,2,0,100.00,0,1,24,1,1,26,26,0,0,0,1717715867,0.02808,0.01709,0.95630,0.95686,-0.00532,-0.00108,-0.00274,0.00608,0.95686,0.00957,0.00739,3,12249,0,26340,0.55515,0.17462,0.31454,100,1,nan,57,1,3,4328,195192,0,0,0.000,91.299,3.381,0,0.000,195.684,4.335,0,0,1,0,1
PPG,7,364955,14599750587,123,76436,81495,80812.711,682.289,203.461,0,0,0,0,0.00,nan,1,2,0,100.00,0,1,24,1,1,27,27,0,0,0,1717755087,0.02686,0.02148,0.95679,0.95741,-0.00532,-0.00028,-0.00194,0.00567,0.95741,0.00292,0.00634,3,12246,0,26340,0.55515,0.17462,0.31454,100,1,nan,57,1,3,4337,195192,0,0,0.000,91.299,3.381,0,0.000,195.684,4.335,0,0,1,0,1
PPG,7,364956,14599790587,118,76441,81522,80819.805,702.195,279.914,0,0,0,0,0.00,nan,1,2,0,100.00,0,1,24,1,1,28,28,0,0,0,1717794346,0.03027,0.01807,0.95459,0.95524,-0.00665,-0.00055,-0.00034,0.00668,0.95524,0.00541,0.00668,3,12259,0,26340,0.55515,0.17462,0.31454,100,1,nan,57,1,3,4337,195192,0,0,0.000,91.299,3.381,0,0.000,195.684,4.335,0,0,1,0,1
PPG,7,364957,14599830587,116,76463,81582,80827.430,754.570,353.492,0,0,0,0,0.00,nan,1,2,0,100.00,0,1,24,1,1,29,29,0,0,0,1717833580,0.02905,0.01709,0.95190,0.95250,-0.00665,-0.00028,-0.00087,0.00671,0.95559,0.00309,0.00686,3,12262,0,26340,0.55515,0.17462,0.31454,100,1,nan,57,1,3,2644,195192,0,0,0.000,91.299,3.381,0,0.000,195.684,4.335,0,0,1,0,1
PPG,7,364958,14599870587,115,76429,81520,80834.352,685.648,405.789,0,0,0,0,0.00,nan,1,2,0,100.00,0,1,24,1,1,30,30,0,0,0,1717875511,0.02466,0.01758,0.95825,0.95873,-0.00558,-0.00108,-0.00194,0.00601,0.95873,0.00566,0.00703,3,12271,0,26340,0.55515,0.17462,0.31454,100,1,nan,57,1,3,4332,195192,0,0,0.000,91.299,3.381,0,0.000,195.684,4.335,0,0,1,0,1
PPG,7,364959,14599910587,125,76300,81150,80837.508,312.492,402.453,0,0,0,0,0.00,nan,1,2,0,100.00,0,1,24,1,1,31,31,0,0,0,1717914793,0.02905,0.01660,0.94580,0.94639,-0.00665,-0.00001,-0.00114,0.00675,0.95196,0.00711,0.00714,3,12257,0,26340,0.55515,0.17462,0.31454,100,1,nan,57,1,3,4347,195192,0,0,0.000,91.299,3.381,0,0.000,195.684,4.335,0,0,1,0,1
PPG,7,364960,14599950587,117,76188,80839,80837.523,1.477,332.891,0,0,0,0,0.00,nan,1,2,0,100.00,0,1,24,1,1,0,0,0,0,0,1717954130,0.02441,0.01611,0.95093,0.95138,-0.00638,0.00158,-0.00114,0.00668,0.95328,0.00506,0.00668,3,12257,0,26340,0.55515,0.17462,0.31454,100,1,nan,57,1,3,2629,195192,0,0,0.000,91.299,3.381,0,0.000,195.684,4.335,0,0,1,0,1
PPG,7,364961,14599990587,119,76154,80765,80836.797,-71.797,219.922,0,1,0,0,0.00,nan,1,2,0,100.00,0,1,24,1,1,1,1,0,0,0,1717995923,0.03198,0.01636,0.95264,0.95331,-0.00505,-0.00055,-0.00141,0.00527,0.95490,0.00275,0.00616,3,12231,0,26340,0.55515,0.17462,0.31454,100,1,nan,57,1,3,4345,195192,0,0,0.000,91.299,3.381,0,0.000,195.684,4.335,0,0,1,0,1
PPG,7,364962,14600030587,125,76158,80747,80835.898,-88.898,94.312,0,0,0,0,0.00,nan,1,2,0,100.00,0,1,24,1,1,2,2,0,0,0,1718035167,0.02881,0.01660,0.95654,0.95712,-0.00585,-0.00028,-0.00274,0.00647,0.95713,0.00382,0.00685,3,12273,0,26340,0.55515,0.17462,0.31454,100,1,nan,57,1,3,4352,195192,0,0,0.000,91.299,3.381,0,0.000,195.684,4.335,0,0,1,0,1
PPG,7,364963,14600070587,117,76142,80761,80835.148,-74.148,-30.703,0,0,0,0,0.00,nan,1,2,0,100.00,0,1,24,1,1,3,3,0,0,0,1718074447,0.02783,0.02026,0.95557,0.95619,-0.00532,-0.00055,-0.00087,0.00542,0.95619,0.01229,0.00594,3,12231,0,26340,0.55515,0.17462,0.31454,100,1,nan,57,1,3,4344,195192,0,0,0.000,91.299,3.381,0,0.000,195.684,4.335,0,0,1,0,1
PPG,7,364964,14600110587,116,76189,80854,80835.336,18.664,-148.352,0,0,0,0,0.00,nan,1,2,0,100.00,0,1,24,1,1,4,4,0,0,0,1718113643,0.02783,0.01831,0.94897,0.94956,-0.00612,-0.00081,-0.00114,0.00628,0.95680,0.00705,0.00639,3,12213,0,26340,0.55515,0.17462,0.31454,100,1,nan,57,1,3,2626,195192,0,0,0.000,91.299,3.381,0,0.000,195.684,4.335,0,0,1,0,1
PPG,7,364965,14600150587,116,76240,80981,80836.789,144.211,-235.703,0,0,0,0,0.00,nan,1,2,0,100.00,0,1,24,1,1,5,5,0,0,0,1718155549,0.02856,0.01636,0.95410,0.95467,-0.00692,0.00052,-0.00167,0.00713,0.95467,0.00441,0.00713,3,12288,0,26340,0.55515,0.17462,0.31454,100,1,nan,57,1,3,4334,195192,0,0,0.000,91.299,3.381,0,0.000,195.684,4.335,0,0,1,0,1
PPG,7,364966,14600190587,145,76252,81003,80838.453,164.547,-264.148,1,0,1,760,78.95,78.95,2,1,0,100.00,0,1,24,1,1,6,6,0,0,0,1718204130,0.02979,0.01562,0.94775,0.94835,-0.00532,-0.00001,-0.00114,0.00544,0.95388,0.00509,0.00654,3,21615,0,26341,0.55515,0.17462,0.31454,100,1,nan,57,1,3,14599,195192,0,0,325.164,91.299,3.381,1,862.242,195.684,4.335,1,1,1,0,2
PPG,7,364967,14600230587,128,76258,81045,80840.516,204.484,-241.820,0,0,0,0,78.95,78.95,2,1,0,100.00,0,1,24,1,1,7,7,0,0,0,1718240981,0.02344,0.01929,0.95068,0.95117,-0.00718,0.00052,-0.00141,0.00734,0.95610,0.00652,0.00734,3,12279,0,26341,0.55515,0.17462,0.31454,100,1,nan,57,1,3,2680,195192,0,0,0.000,91.607,3.457,0,0.000,196.529,4.436,0,0,1,0,2
PPG,7,364968,14600270587,140,76271,81068,80842.789,225.211,-204.438,0,0,0,0,78.95,78.95,2,1,0,100.00,0,1,24,1,1,8,8,0,0,0,1718277480,0.02393,0.01587,0.95435,0.95478,-0.00585,-0.00055,-0.00141,0.00604,0.96549,0.01432,0.00679,3,12169,0,26341,0.55515,0.17462,0.31454,100,1,nan,57,1,3,2585,195192,0,0,0.000,91.607,3.457,0,0.000,196.529,4.436,0,0,1,0,2
PPG,7,364969,14600310587,121,76267,81049,80844.852,204.148,-164.594,0,0,0,0,78.95,78.95,2,1,0,100.00,0,1,24,1,1,9,9,0,0,0,1718314102,0.02734,0.01758,0.95361,0.95417,-0.00532,-0.00135,-0.00194,0.00582,0.95417,0.00305,0.00654,3,12129,0,26341,0.55515,0.17462,0.31454,100,1,nan,57,1,3,2596,195192,0,0,0.000,91.607,3.457,0,0.000,196.529,4.436,0,0,1,0,2
PPG,7,364970,14600350587,121,76234,81016,80846.562,169.438,-126.258,0,0,0,0,78.95,78.95,2,1,0,100.00,0,1,24,1,1,10,10,0,0,0,1718355695,0.02637,0.02319,0.95996,0.96060,-0.00558,-0.00108,-0.00221,0.00610,0.96060,0.00696,0.00630,3,12161,0,26341,0.55515,0.17462,0.31454,100,1,nan,57,1,3,4299,195192,0,0,0.000,91.607,3.457,0,0.000,196.529,4.436,0,0,1,0,2
PPG,7,364971,14600390587,514,76221,80986,80847.953,138.047,-98.609,0,0,0,0,78.95,78.95,2,1,0,100.00,0,1,24,1,1,11,11,0,0,0,1718394719,0.02368,0.01489,0.95044,0.95085,-0.00532,-0.00081,-0.00141,0.00556,0.95414,0.00647,0.00556,3,12124,0,26341,0.33398,0.14760,0.44195,100,1,98.951,60,1,3,4299,195192,0,0,0.000,91.607,3.457,0,0.000,196.529,4.436,0,0,1,0,2
PPG,7,364972,14600430587,176,76231,81003,80849.500,153.500,-83.461,0,0,0,0,78.95,78.95,2,1,0,100.00,0,1,24,1,1,12,12,0,0,0,1718434115,0.02759,0.01636,0.95410,0.95464,-0.00558,-0.00028,-0.00141,0.00577,0.95630,0.00423,0.00577,3,12114,0,26341,0.33398,0.14760,0.44195,100,1,98.951,60,1,3,2598,195192,0,0,0.000,91.607,3.457,0,0.000,196.529,4.436,0,0,1,0,2
PPG,7,364973,14600470587,119,76234,81078,80851.781,226.219,-60.250,0,0,0,0,78.95,78.95,2,1,0,100.00,0,1,24,1,1,13,13,0,0,0,1718475745,0.02856,0.01685,0.95654,0.95712,-0.00558,-0.00028,-0.00114,0.00571,0.95712,0.00437,0.00627,3,12119,0,26341,0.33398,0.14760,0.44195,100,1,98.951,60,1,3,4296,195192,0,0,0.000,91.607,3.457,0,0.000,196.529,4.436,0,0,1,0,2
PPG,7,364974,14600510587,120,76255,81117,80854.430,262.570,-33.758,0,0,0,0,78.95,78.95,2,1,0,100.00,0,1,24,1,1,14,14,0,0,0,1718514670,0.02808,0.01514,0.95142,0.95195,-0.00638,0.00052,-0.00114,0.00651,0.95391,0.00321,0.00651,3,12110,0,26341,0.33398,0.14760,0.44195,100,1,98.951,60,1,3,4295,195192,0,0,0.000,91.607,3.457,0,0.000,196.529,4.436,0,0,1,0,2
PPG,7,364975,14600550587,123,76288,81239,80858.273,380.727,3.461,0,0,0,0,78.95,78.95,2,1,0,100.00,0,1,24,1,1,15,15,0,0,0,1718553648,0.02930,0.01636,0.94922,0.94981,-0.00585,-0.00001,-0.00167,0.00609,0.95164,0.00208,0.00615,3,12162,0,26341,0.33398,0.14760,0.44195,100,1,98.951,60,1,3,2597,195192,0,0,0.000,91.607,3.457,0,0.000,196.529,4.436,0,0,1,0,2
PPG,7,364976,14600590587,123,76337,81343,80863.117,479.883,54.414,0,0,0,0,78.95,78.95,2,1,0,100.00,0,1,24,1,1,16,16,0,0,0,1718595180,0.02930,0.01709,0.95581,0.95641,-0.00585,-0.00001,-0.00194,0.00616,0.95641,0.00380,0.00616,3,12120,0,26341,0.33398,0.14760,0.44195,100,1,98.951,60,1,3,4299,195192,0,0,0.000,91.607,3.457,0,0.000,196.529,4.436,0,0,1,0,2
PPG,7,364977,14600630587,118,76366,81433,80868.812,564.188,121.438,0,0,0,0,78.95,78.95,2,1,0,100.00,0,1,24,1,1,17,17,0,0,0,1718634106,0.02954,0.02002,0.95532,0.95599,-0.00638,-0.00001,-0.00247,0.00685,0.95599,0.00248,0.00685,3,12114,0,26341,0.33398,0.14760,0.44195,100,1,98.951,60,1,3,2599,195192,0,0,0.000,91.607,3.457,0,0.000,196.529,4.436,0,0,1,0,2
PPG,7,364978,14600670587,121,76321,81271,80872.836,398.164,174.602,0,0,0,0,78.95,78.95,2,1,0,100.00,0,1,24,1,1,18,18,0,0,0,1718675758,0.03076,0.01709,0.95581,0.95646,-0.00612,0.00052,-0.00141,0.00630,0.95646,0.00576,0.00651,3,12111,0,26341,0.33398,0.14760,0.44195,100,1,98.951,60,1,3,4296,195192,0,0,0.000,91.607,3.457,0,0.000,196.529,4.436,0,0,1,0,2
PPG,7,364979,14600710587,128,76135,80830,80872.406,-42.406,165.891,0,0,0,0,78.95,78.95,2,1,0,100.00,0,1,24,1,1,19,19,0,0,0,1718714704,0.02783,0.01587,0.94458,0.94512,-0.00558,0.00052,-0.00221,0.00603,0.95929,0.01111,0.00651,3,12124,0,26341,0.33398,0.14760,0.44195,100,1,98.951,60,1,3,4299,195192,0,0,0.000,91.607,3.457,0,0.000,196.529,4.436,0,0,1,0,2
PPG,7,364980,14600750587,118,76085,80626,80869.945,-243.945,111.961,0,0,0,0,78.95,78.95,2,1,0,100.00,0,1,24,1,1,20,20,0,0,0,1718753655,0.02686,0.01270,0.95581,0.95627,-0.00612,-0.00028,-0.00141,0.00628,0.95627,0.01022,0.00642,3,12121,0,26341,0.33398,0.14760,0.44195,100,1,98.951,60,1,3,2600,195192,0,0,0.000,91.607,3.457,0,0.000,196.529,4.436,0,0,1,0,2
PPG,7,364981,14600790587,122,76083,80653,80867.773,-214.773,51.281,0,0,0,0,78.95,78.95,2,1,0,100.00,0,1,24,1,1,21,21,0,0,0,1718795230,0.02661,0.01440,0.95142,0.95190,-0.00638,-0.00028,-0.00114,0.00649,0.95237,0.00473,0.00669,3,12123,0,26341,0.33398,0.14760,0.44195,100,1,98.951,60,1,3,4298,195192,0,0,0.000,91.607,3.457,0,0.000,196.529,4.436,0,0,1,0,2
PPG,7,364982,14600830587,119,76117,80719,80866.289,-147.289,-21.609,0,0,0,0,78.95,78.95,2,1,0,100.00,0,1,24,1,1,22,22,0,0,0,1718834167,0.02710,0.02124,0.95386,0.95448,-0.00532,0.00025,-0.00194,0.00567,0.95448,0.00816,0.00668,3,12123,0,26341,0.33398,0.14760,0.44195,100,1,98.951,60,1,3,2604,195192,0,0,0.000,91.607,3.457,0,0.000,196.529,4.436,0,0,1,0,2
PPG,7,364983,14600870587,120,76150,80820,80865.828,-45.828,-99.273,0,1,0,0,78.95,78.95,2,1,0,100.00,0,1,24,1,1,23,23,0,0,0,1718875768,0.02808,0.01807,0.95557,0.95615,-0.00638,-0.00028,-0.00114,0.00649,0.95615,0.00420,0.00649,3,12119,0,26341,0.33398,0.14760,0.44195,100,1,98.951,60,1,3,4299,195192,0,0,0.000,91.607,3.457,0,0.000,196.529,4.436,0,0,1,0,2
PPG,7,364984,14600910587,119,76188,80931,80866.477,64.523,-174.836,0,0,0,0,78.95,78.95,2,1,0,100.00,0,1,24,1,1,24,24,0,0,0,1718914720,0.02515,0.01709,0.95215,0.95263,-0.00558,0.00025,-0.00221,0.00601,0.95383,0.00840,0.00601,3,12118,0,26341,0.33398,0.14760,0.44195,100,1,98.951,60,1,3,2596,195192,0,0,0.000,91.607,3.457,0,0.000,196.529,4.436,0,0,1,0,2
PPG,7,364985,14600950587,117,76195,80938,80867.195,70.805,-220.258,0,0,0,0,78.95,78.95,2,1,0,100.00,0,1,24,1,1,25,25,0,0,0,1718956289,0.02979,0.01538,0.95264,0.95323,-0.00638,-0.00108,-0.00087,0.00653,0.95441,0.00578,0.00653,3,12147,0,26341,0.33398,0.14760,0.44195,100,1,98.951,60,1,3,4307,195192,0,0,0.000,91.607,3.457,0,0.000,196.529,4.436,0,0,1,0,2
PPG,7,364986,14600990587,143,76169,80898,80867.500,30.500,-205.289,1,0,1,800,75.00,75.00,2,1,0,100.00,0,1,24,1,1,26,26,0,0,0,1718995243,0.03101,0.01782,0.95239,0.95306,-0.00585,-0.00001,-0.00194,0.00616,0.95306,0.00518,0.00621,3,12119,0,26341,0.33398,0.14760,0.44195,100,1,98.951,60,1,3,4300,195192,0,0,149.992,91.607,3.457,1,438.750,196.529,4.436,1,1,1,0,3
PPG,7,364987,14601030587,119,76175,80912,80867.945,44.055,-157.789,0,0,0,0,75.00,75.00,2,1,0,100.00,0,1,24,1,1,27,27,0,0,0,1719034245,0.02856,0.01685,0.95703,0.95761,-0.00585,-0.00108,-0.00114,0.00606,0.95761,0.00417,0.00637,3,12111,0,26341,0.33398,0.14760,0.44195,100,1,98.951,60,1,3,2597,195192,0,0,0.000,90.782,3.254,0,0.000,194.622,4.208,0,0,1,0,3
PPG,7,364988,14601070587,122,76204,80984,80869.109,114.891,-106.297,0,0,0,0,75.00,75.00,2,1,0,100.00,0,1,24,1,1,28,28,0,0,0,1719075825,0.02808,0.01587,0.95898,0.95953,-0.00558,-0.00028,-0.00114,0.00571,0.95953,0.00790,0.00622,3,12121,0,26341,0.33398,0.14760,0.44195,100,1,98.951,60,1,3,4299,195192,0,0,0.000,90.782,3.254,0,0.000,194.622,4.208,0,0,1,0,3
PPG,7,364989,14601110587,120,76238,81088,80871.297,216.703,-55.539,0,0,0,0,75.00,75.00,2,1,0,100.00,0,1,24,1,1,29,29,0,0,0,1719114778,0.02979,0.01929,0.95508,0.95574,-0.00612,-0.00001,-0.00114,0.00622,0.95615,0.00775,0.00667,3,12111,0,26341,0.33398,0.14760,0.44195,100,1,98.951,60,1,3,2599,195192,0,0,0.000,90.782,3.254,0,0.000,194.622,4.208,0,0,1,0,3
PPG,7,364990,14601150587,122,76246,81140,80873.984,266.016,-16.023,0,0,0,0,75.00,75.00,2,1,0,100.00,0,1,24,1,1,30,30,0,0,0,1719156363,0.02808,0.01782,0.95435,0.95492,-0.00532,0.00025,-0.00061,0.00536,0.95582,0.00290,0.00721,3,12132,0,26341,0.33398,0.14760,0.44195,100,1,98.951,60,1,3,4294,195192,0,0,0.000,90.782,3.254,0,0.000,194.622,4.208,0,0,1,0,3
PPG,7,364991,14601190587,126,76261,81204,80877.281,326.719,12.078,0,0,0,0,75.00,75.00,2,1,0,100.00,0,1,24,1,1,31,31,0,0,0,1719204651,0.02808,0.01514,0.94873,0.94927,-0.00638,-0.00055,-0.00114,0.00651,0.95580,0.00898,0.00651,3,21453,0,26342,0.33398,0.14760,0.44195,100,1,98.951,60,1,3,14464,195192,0,0,0.000,90.782,3.254,0,0.000,194.622,4.208,0,0,1,0,3
PPG,7,364992,14601230587,124,76255,81240,80880.906,359.094,43.367,0,0,0,0,75.00,75.00,2,1,0,100.00,0,1,24,1,1,0,0,0,0,0,1719241075,0.02466,0.02051,0.95117,0.95171,-0.00532,-0.00055,-0.00087,0.00542,0.95367,0.00227,0.00701,3,12113,0,26342,0.33398,0.14760,0.44195,100,1,98.951,60,1,3,2591,195192,0,0,0.000,90.782,3.254,0,0.000,194.622,4.208,0,0,1,0,3
PPG,7,364993,14601270587,120,76262,81275,80884.844,390.156,87.383,0,0,0,0,75.00,75.00,2,1,0,100.00,0,1,24,1,1,1,1,0,0,0,1719277480,0.03027,0.01953,0.95361,0.95429,-0.00479,-0.00055,-0.00247,0.00541,0.95825,0.00979,0.00693,3,12171,0,26342,0.33398,0.14760,0.44195,100,1,98.951,60,1,3,2595,195192,0,0,0.000,90.782,3.254,0,0.000,194.622,4.208,0,0,1,0,3
PPG,7,364994,14601310587,122,76282,81321,80889.203,431.797,135.609,0,0,0,0,75.00,75.00,2,1,0,100.00,0,1,24,1,1,2,2,0,0,0,1719313832,0.03027,0.01831,0.95044,0.95110,-0.00612,0.00025,-0.00194,0.00642,0.95181,0.00249,0.00642,3,12128,0,26342,0.33398,0.14760,0.44195,100,1,98.951,60,1,3,2603,195192,0,0,0.000,90.782,3.254,0,0.000,194.622,4.208,0,0,1,0,3
PPG,7,364995,14601350587,121,76294,81360,80893.914,466.086,183.273,0,0,0,0,75.00,75.00,2,1,0,100.00,0,1,24,1,1,3,3,0,0,0,1719355379,0.02539,0.01758,0.94727,0.94777,-0.00638,-0.00001,-0.00061,0.00641,0.95633,0.00856,0.00694,3,12127,0,26342,0.33398,0.14760,0.44195,100,1,98.951,60,1,3,4295,195192,0,0,0.000,90.782,3.254,0,0.000,194.622,4.208,0,0,1,0,3
PPG,7,364996,14601390587,520,76326,81435,80899.328,535.672,228.242,0,0,0,0,75.00,75.00,2,1,0,100.00,0,1,24,1,1,4,4,0,0,0,1719394769,0.03320,0.02026,0.95703,0.95782,-0.00638,-0.00135,-0.00141,0.00667,0.95782,0.00860,0.00667,3,12320,0,26342,0.33215,0.16328,0.49159,100,1,97.710,100,1,3,2595,195192,0,0,0.000,90.782,3.254,0,0.000,194.622,4.208,0,0,1,0,3
PPG,7,364997,14601430587,170,76333,81493,80905.266,587.734,275.672,0,0,0,0,75.00,75.00,2,1,0,100.00,0,1,24,1,1,5,5,0,0,0,1719436832,0.02490,0.01587,0.95166,0.95212,-0.00585,-0.00108,-0.00327,0.00679,0.95823,0.00450,0.00685,3,12121,0,26342,0.33215,0.16328,0.49159,100,1,97.710,100,1,3,4299,195192,0,0,0.000,90.782,3.254,0,0.000,194.622,4.208,0,0,1,0,3
PPG,7,364998,14601470587,122,76310,81446,80910.672,535.328,301.492,0,0,0,0,75.00,75.00,2,1,0,100.00,0,1,24,1,1,6,6,0,0,0,1719475892,0.02905,0.01611,0.95142,0.95200,-0.00558,-0.00081,-0.00221,0.00606,0.95210,0.00194,0.00693,3,12168,0,26342,0.33215,0.16328,0.49159,100,1,97.710,100,1,3,4350,195192,0,0,0.000,90.782,3.254,0,0.000,194.622,4.208,0,0,1,0,3
PPG,7,364999,14601510587,136,76208,81143,80912.992,230.008,271.992,0,1,0,0,75.00,75.00,2,1,0,100.00,0,1,24,1,1,7,7,0,0,0,1719514984,0.03052,0.01489,0.95313,0.95373,-0.00532,-0.00001,-0.00114,0.00544,0.95488,0.00706,0.00656,3,12111,0,26342,0.33215,0.16328,0.49159,100,1,97.710,100,1,3,4300,195192,0,0,0.000,90.782,3.254,0,0.000,194.622,4.208,0,0,1,0,3
PPG,7,365000,14601550587,122,76104,80847,80912.336,-65.336,199.789,0,0,0,0,75.00,75.00,2,1,0,100.00,0,1,24,1,1,8,8,0,0,0,1719554125,0.02637,0.01636,0.95435,0.95485,-0.00665,0.00025,-0.00087,0.00671,0.96151,0.01018,0.00671,3,12127,0,26342,0.33215,0.16328,0.49159,100,1,97.710,100,1,3,2596,195192,0,0,0.000,90.782,3.254,0,0.000,194.622,4.208,0,0,1,0,3
PPG,7,365001,14601590587,130,76043,80754,80910.750,-156.750,113.742,0,0,0,0,75.00,75.00,2,1,0,100.00,0,1,24,1,1,9,9,0,0,0,1719596101,0.02930,0.01782,0.95093,0.95155,-0.00665,-0.00055,-0.00034,0.00668,0.95569,0.00414,0.00668,3,12255,0,26342,0.33215,0.16328,0.49159,100,1,97.710,100,1,3,4336,195192,0,0,0.000,90.782,3.254,0,0.000,194.622,4.208,0,0,1,0,3
PPG,7,365002,14601630587,123,76084,80830,80909.945,-79.945,32.477,0,0,0,0,75.00,75.00,2,1,0,100.00,0,1,24,1,1,10,10,0,0,0,1719635441,0.02393,0.01733,0.96313,0.96359,-0.00638,0.00025,-0.00167,0.00660,0.96359,0.00800,0.00680,3,12274,0,26342,0.33215,0.16328,0.49159,100,1,97.710,100,1,3,4347,195192,0,0,0.000,90.782,3.254,0,0.000,194.622,4.208,0,0,1,0,3
PPG,7,365003,14601670587,122,76125,80965,80910.492,54.508,-41.914,0,0,0,0,75.00,75.00,2,1,0,100.00,0,1,24,1,1,11,11,0,0,0,1719674762,0.03027,0.01709,0.95361,0.95425,-0.00558,-0.00001,-0.00167,0.00583,0.95619,0.00930,0.00620,3,12289,0,26342,0.33215,0.16328,0.49159,100,1,97.710,100,1,3,2647,195192,0,0,0.000,90.782,3.254,0,0.000,194.622,4.208,0,0,1,0,3
PPG,7,365004,14601710587,140,76166,81103,80912.414,190.586,-106.227,0,0,0,0,75.00,75.00,2,1,0,100.00,0,1,24,1,1,12,12,0,0,0,1719716694,0.02856,0.01904,0.95337,0.95399,-0.00505,-0.00001,-0.00114,0.00518,0.95643,0.00271,0.00534,3,12243,0,26342,0.33215,0.16328,0.49159,100,1,97.710,100,1,3,4331,195192,0,0,0.000,90.782,3.254,0,0.000,194.622,4.208,0,0,1,0,3
PPG,7,365005,14601750587,129,76210,81204,80915.328,288.672,-154.102,0,0,0,0,75.00,75.00,2,1,0,100.00,0,1,24,1,1,13,13,0,0,0,1719756047,0.02832,0.01489,0.95776,0.95830,-0.00558,0.00025,-0.00034,0.00560,0.95830,0.00327,0.00712,3,12243,0,26342,0.33215,0.16328,0.49159,100,1,97.710,100,1,3,4343,195192,0,0,0.000,90.782,3.254,0,0.000,194.622,4.208,0,0,1,0,3
PPG,7,365006,14601790587,142,76227,81235,80918.523,316.477,-157.812,1,0,1,800,75.00,75.00,2,1,0,100.00,0,1,24,1,1,14,14,0,0,0,1719795378,0.02954,0.01465,0.95459,0.95516,-0.00558,-0.00081,-0.00114,0.00576,0.96086,0.00299,0.00712,3,12258,0,26342,0.33215,0.16328,0.49159,100,1,97.710,100,1,3,4346,195192,0,0,167.430,90.782,3.254,1,521.750,194.622,4.208,1,1,1,0,4
PPG,7,365007,14601830587,128,76230,81290,80922.234,367.766,-113.422,0,0,0,0,75.00,75.00,2,1,0,100.00,0,1,24,1,1,15,15,0,0,0,1719834792,0.02881,0.01636,0.94604,0.94662,-0.00505,-0.00028,-0.00061,0.00510,0.95486,0.00824,0.00686,3,12253,0,26342,0.33215,0.16328,0.49159,100,1,97.710,100,1,3,2620,195192,0,0,0.000,90.169,3.104,0,0.000,193.471,4.071,0,0,1,0,4
PPG,7,365008,14601870587,143,76240,81327,80926.281,400.719,-48.711,0,0,0,0,75.00,75.00,2,1,0,100.00,0,1,24,1,1,16,16,0,0,0,1719876732,0.02832,0.01904,0.95532,0.95593,-0.00585,-0.00161,-0.00167,0.00630,0.96003,0.01248,0.00630,3,12268,0,26342,0.33215,0.16328,0.49159,100,1,97.710,100,1,3,4340,195192,0,0,0.000,90.169,3.104,0,0.000,193.471,4.071,0,0,1,0,4
PPG,7,365009,14601910587,134,76280,81399,80931.008,467.992,17.023,0,0,0,0,75.00,75.00,2,1,0,100.00,0,1,24,1,1,17,17,0,0,0,1719954513,0.03125,0.01782,0.95166,0.95234,-0.00532,-0.00055,-0.00141,0.00553,0.95547,0.00313,0.00553,2,62975,0,26347,0.33215,0.16328,0.49159,100,1,97.710,100,1,3,63010,195192,0,0,0.000,90.169,3.104,0,0.000,193.471,4.071,0,0,1,0,4
PPG,7,365010,14601950587,128,76301,81474,80936.438,537.562,73.039,0,0,0,0,75.00,75.00,2,1,0,100.00,0,1,24,1,1,18,18,0,0,0,1719966727,0.02686,0.01221,0.95215,0.95261,-0.00612,-0.00001,-0.00194,0.00642,0.95261,0.00027,0.00642,1,12214,0,26347,0.33215,0.16328,0.49159,100,1,97.710,100,1,3,12152,195192,0,0,0.000,90.169,3.104,0,0.000,193.471,4.071,0,0,1,0,4
PPG,7,365011,14601990587,124,76315,81543,80942.500,600.500,118.938,0,0,0,0,75.00,75.00,2,1,0,100.00,0,1,24,1,1,19,19,0,0,0,1719991335,0.03076,0.01587,0.95264,0.95327,-0.00558,-0.00055,-0.00114,0.00573,0.95327,0.00859,0.00583,2,12350,0,26347,0.33215,0.16328,0.49159,100,1,97.710,100,1,3,2609,195192,0,0,0.000,90.169,3.104,0,0.000,193.471,4.071,0,0,1,0,4
PPG,7,365012,14602030587,124,76320,81543,80948.508,594.492,152.219,0,0,0,0,75.00,75.00,2,1,0,100.00,0,1,24,1,1,20,20,0,0,0,1720035897,0.02832,0.01855,0.94946,0.95007,-0.00585,-0.00001,-0.00114,0.00596,0.95550,0.00427,0.00693,3,12239,0,26348,0.33215,0.16328,0.49159,100,1,97.710,100,1,3,4335,195192,0,0,0.000,90.169,3.104,0,0.000,193.471,4.071,0,0,1,0,4
PPG,7,365013,14602070587,123,76320,81586,80954.883,631.117,186.812,0,0,0,0,75.00,75.00,2,1,0,100.00,0,1,24,1,1,21,21,0,0,0,1720075143,0.02905,0.02295,0.95557,0.95628,-0.00452,-0.00028,-0.00141,0.00474,0.95855,0.00848,0.00656,3,12246,0,26348,0.33215,0.16328,0.49159,100,1,97.710,100,1,3,2629,195192,0,0,0.000,90.169,3.104,0,0.000,193.471,4.071,0,0,1,0,4
PPG,7,365014,14602110587,133,76329,81594,80961.273,632.727,216.594,0,0,0,0,75.00,75.00,2,1,0,100.00,0,1,24,1,1,22,22,0,0,0,1720117133,0.02661,0.01587,0.95459,0.95509,-0.00558,0.00105,-0.00167,0.00592,0.95618,0.00219,0.00640,3,12247,0,26348,0.33215,0.16328,0.49159,100,1,97.710,100,1,3,4329,195192,0,0,0.000,90.169,3.104,0,0.000,193.471,4.071,0,0,1,0,4
PPG,7,365015,14602150587,122,76330,81612,80967.781,644.219,244.711,0,0,0,0,75.00,75.00,2,1,0,100.00,0,1,24,1,1,23,23,0,0,0,1720156414,0.02466,0.01733,0.95483,0.95531,-0.00585,-0.00028,-0.00114,0.00597,0.95531,0.00236,0.00597,3,12234,0,26348,0.33215,0.16328,0.49159,100,1,97.710,100,1,3,4335,195192,0,0,0.000,90.169,3.104,0,0.000,193.471,4.071,0,0,1,0,4
PPG,7,365016,14602190587,129,76354,81639,80974.492,664.508,268.789,0,0,0,0,75.00,75.00,2,1,0,100.00,0,1,24,1,1,24,24,0,0,0,1720204972,0.02783,0.01587,0.95435,0.95488,-0.00638,-0.00028,-0.00087,0.00645,0.95789,0.00258,0.00645,3,21465,0,26349,0.33215,0.16328,0.49159,100,1,97.710,100,1,3,14484,195192,0,0,0.000,90.169,3.104,0,0.000,193.471,4.071,0,0,1,0,4
PPG,7,365017,14602230587,125,76349,81656,80981.305,674.695,286.641,0,0,0,0,75.00,75.00,2,1,0,100.00,0,1,24,1,1,25,25,0,0,0,1720241556,0.02881,0.01343,0.95239,0.95292,-0.00665,-0.00055,-0.00114,0.00677,0.95361,0.00149,0.00752,3,12120,0,26349,0.33215,0.16328,0.49159,100,1,97.710,100,1,3,2587,195192,0,0,0.000,90.169,3.104,0,0.000,193.471,4.071,0,0,1,0,4
PPG,7,365018,14602270587,123,76330,81613,80987.625,625.375,288.289,0,0,0,0,75.00,75.00,2,1,0,100.00,0,1,24,1,1,26,26,0,0,0,1720277998,0.02637,0.01465,0.95288,0.95336,-0.00558,0.00025,-0.00114,0.00571,0.95377,0.00601,0.00571,3,12132,0,26349,0.33215,0.16328,0.49159,100,1,97.710,100,1,3,2589,195192,0,0,0.000,90.169,3.104,0,0.000,193.471,4.071,0,0,1,0,4
PPG,7,365019,14602310587,137,76307,81538,80993.125,544.875,267.828,0,0,0,0,75.00,75.00,2,1,0,100.00,0,1,24,1,1,27,27,0,0,0,1720314445,0.03149,0.01978,0.95776,0.95849,-0.00638,0.00052,-0.00141,0.00656,0.96099,0.00944,0.00656,3,12155,0,26349,0.33215,0.16328,0.49159,100,1,97.710,100,1,3,2602,195192,0,0,0.000,90.169,3.104,0,0.000,193.471,4.071,0,0,1,0,4
PPG,7,365020,14602350587,124,76253,81401,80997.203,403.797,213.703,0,0,0,0,75.00,75.00,2,1,0,100.00,0,1,24,1,1,28,28,0,0,0,1720356007,0.02856,0.01416,0.95142,0.95195,-0.00558,-0.00001,-0.00087,0.00565,0.95297,0.01087,0.00686,3,12119,0,26349,0.33215,0.16328,0.49159,100,1,97.710,100,1,3,4300,195192,0,0,0.000,90.169,3.104,0,0.000,193.471,4.071,0,0,1,0,4
PPG,7,365021,14602390587,514,76240,81351,81000.742,350.258,149.141,0,0,0,0,75.00,75.00,2,1,0,100.00,0,0,24,1,1,29,29,0,0,0,1720394996,0.02832,0.02051,0.95044,0.95108,-0.00585,-0.00055,-0.00194,0.00619,0.95563,0.00528,0.00619,3,12156,0,26349,0.37850,0.13832,0.36544,100,1,100.864,107,1,3,2598,195192,0,0,0.000,90.169,3.104,0,0.000,193.471,4.071,0,0,1,0,4
PPG,7,365022,14602430587,173,76242,81386,81004.594,381.406,89.047,0,0,0,0,75.00,75.00,2,1,0,100.00,0,0,24,1,1,30,30,0,0,0,1720436991,0.03125,0.01904,0.94360,0.94431,-0.00612,0.00052,-0.00141,0.00630,0.95824,0.00982,0.00630,3,12121,0,26349,0.37850,0.13832,0.36544,100,1,100.864,107,1,3,4307,195192,0,0,0.000,90.169,3.104,0,0.000,193.471,4.071,0,0,1,0,4
PPG,7,365023,14602470587,124,76272,81463,81009.180,453.820,39.008,0,0,0,0,75.00,75.00,2,1,0,100.00,0,0,24,1,1,31,31,0,0,0,1720476002,0.02637,0.01587,0.94897,0.94947,-0.00612,-0.00055,-0.00194,0.00644,0.96005,0.01574,0.00644,3,12126,0,26349,0.37850,0.13832,0.36544,100,1,100.864,107,1,3,4300,195192,0,0,0.000,90.169,3.104,0,0.000,193.471,4.071,0,0,1,0,4
PPG,7,365024,14602510587,125,76290,81519,81014.281,504.719,-1.359,0,0,0,0,75.00,75.00,2,1,0,100.00,0,0,24,1,1,0,0,0,0,0,1720515019,0.02881,0.01855,0.95435,0.95496,-0.00532,-0.00028,-0.00194,0.00567,0.95496,0.00563,0.00665,3,12118,0,26349,0.37850,0.13832,0.36544,100,1,100.864,107,1,3,2597,195192,0,0,0.000,90.169,3.104,0,0.000,193.471,4.071,0,0,1,0,4
PPG,7,365025,14602550587,123,76294,81536,81019.500,516.500,-28.961,0,0,0,0,75.00,75.00,2,1,0,100.00,0,0,24,1,1,1,1,0,0,0,1720556550,0.02930,0.01709,0.94922,0.94982,-0.00558,-0.00055,-0.00221,0.00603,0.95109,0.00387,0.00603,3,12121,0,26349,0.37850,0.13832,0.36544,100,1,100.864,107,1,3,4308,195192,0,0,0.000,90.169,3.104,0,0.000,193.471,4.071,0,0,1,0,4
PPG,7,365026,14602590587,146,76299,81538,81024.688,513.312,-44.109,1,0,1,800,75.00,75.00,2,1,0,100.00,0,0,24,1,1,2,2,0,0,0,1720595526,0.02905,0.01733,0.94580,0.94641,-0.00692,-0.00055,-0.00194,0.00720,0.95464,0.00823,0.00720,3,12128,0,26349,0.37850,0.13832,0.36544,100,1,100.864,107,1,3,4299,195192,0,0,170.539,90.169,3.104,1,446.102,193.471,4.071,1,1,1,0,5
PPG,7,365027,14602630587,125,76306,81556,81030.000,526.000,-35.273,0,0,0,0,75.00,75.00,2,1,0,100.00,0,0,24,1,1,3,3,0,0,0,1720634686,0.02856,0.01733,0.95459,0.95517,-0.00558,0.00052,-0.00114,0.00572,0.95760,0.00902,0.00625,3,12111,0,26349,0.37850,0.13832,0.36544,100,1,100.864,107,1,3,2603,195192,0,0,0.000,89.652,2.977,0,0.000,191.992,3.895,0,0,1,0,5
PPG,7,365028,14602670587,126,76298,81552,81035.219,516.781,-17.812,0,0,0,0,75.00,75.00,2,1,0,100.00,0,0,24,1,1,4,4,0,0,0,1720676246,0.02490,0.01587,0.94873,0.94919,-0.00558,-0.00135,-0.00167,0.00598,0.96125,0.01206,0.00598,3,12114,0,26349,0.37850,0.13832,0.36544,100,1,100.864,107,1,3,4297,195192,0,0,0.000,89.652,2.977,0,0.000,191.992,3.895,0,0,1,0,5
PPG,7,365029,14602710587,123,76313,81598,81040.844,557.156,2.531,0,0,0,0,75.00,75.00,2,1,0,100.00,0,0,24,1,1,5,5,0,0,0,1720715302,0.02563,0.01367,0.94873,0.94918,-0.00558,0.00052,-0.00087,0.00568,0.95529,0.00610,0.00589,3,12130,0,26349,0.37850,0.13832,0.36544,100,1,100.864,107,1,3,2621,195192,0,0,0.000,89.652,2.977,0,0.000,191.992,3.895,0,0,1,0,5
PPG,7,365030,14602750587,123,76319,81641,81046.844,594.156,19.609,0,0,0,0,75.00,75.00,2,1,0,100.00,0,0,24,1,1,6,6,0,0,0,1720756873,0.03101,0.01050,0.95459,0.95515,-0.00585,-0.00055,-0.00194,0.00619,0.95612,0.00695,0.00634,3,12119,0,26349,0.37850,0.13832,0.36544,100,1,100.864,107,1,3,4305,195192,0,0,0.000,89.652,2.977,0,0.000,191.992,3.895,0,0,1,0,5
PPG,7,365031,14602790587,122,76323,81669,81053.062,615.938,34.742,0,0,0,0,75.00,75.00,2,1,0,100.00,0,0,24,1,1,7,7,0,0,0,1720795832,0.02734,0.01831,0.95459,0.95516,-0.00505,-0.00135,-0.00167,0.00549,0.95516,0.00632,0.00606,3,12128,0,26349,0.37850,0.13832,0.36544,100,1,100.864,107,1,3,4330,195192,0,0,0.000,89.652,2.977,0,0.000,191.992,3.895,0,0,1,0,5
PPG,7,365032,14602830587,125,76335,81674,81059.273,614.727,47.898,0,0,0,0,75.00,75.00,2,1,0,100.00,0,0,24,1,1,8,8,0,0,0,1720835263,0.02979,0.01685,0.94482,0.94544,-0.00612,0.00025,-0.00141,0.00628,0.95641,0.01097,0.00735,3,12173,0,26349,0.37850,0.13832,0.36544,100,1,100.864,107,1,3,2594,195192,0,0,0.000,89.652,2.977,0,0.000,191.992,3.895,0,0,1,0,5
PPG,7,365033,14602870587,123,76325,81695,81065.633,629.367,64.883,0,0,0,0,75.00,75.00,2,1,0,100.00,0,0,24,1,1,9,9,0,0,0,1720876892,0.02539,0.01880,0.95605,0.95658,-0.00585,0.00025,-0.00061,0.00589,0.95658,0.00436,0.00721,3,12117,0,26349,0.37850,0.13832,0.36544,100,1,100.864,107,1,3,4298,195192,0,0,0.000,89.652,2.977,0,0.000,191.992,3.895,0,0,1,0,5
PPG,7,365034,14602910587,124,76343,81709,81072.070,636.930,80.992,0,0,0,0,75.00,75.00,2,1,0,100.00,0,0,24,1,1,10,10,0,0,0,1720915895,0.02222,0.01587,0.95776,0.95815,-0.00612,-0.00001,-0.00221,0.00650,0.95815,0.00257,0.00660,3,12171,0,26349,0.37850,0.13832,0.36544,100,1,100.864,107,1,3,4300,195192,0,0,0.000,89.652,2.977,0,0.000,191.992,3.895,0,0,1,0,5
PPG,7,365035,14602950587,122,76355,81755,81078.898,676.102,102.836,0,0,0,0,75.00,75.00,2,1,0,100.00,0,0,24,1,1,11,11,0,0,0,1720954840,0.02783,0.01733,0.94946,0.95003,-0.00745,-0.00135,-0.00061,0.00759,0.95782,0.00779,0.00759,3,12118,0,26349,0.37850,0.13832,0.36544,100,1,100.864,107,1,3,2602,195192,0,0,0.000,89.652,2.977,0,0.000,191.992,3.895,0,0,1,0,5
PPG,7,365036,14602990587,186,76338,81752,81085.633,666.367,119.188,0,0,0,0,75.00,75.00,2,1,0,100.00,0,0,24,1,1,12,12,0,0,0,1720996379,0.02710,0.02124,0.95605,0.95667,-0.00665,-0.00001,-0.00087,0.00671,0.95667,0.00393,0.00671,3,12117,0,26349,0.37850,0.13832,0.36544,100,1,100.864,107,1,3,4296,195192,0,0,0.000,89.652,2.977,0,0.000,191.992,3.895,0,0,1,0,5
PPG,7,365037,14603030587,127,76314,81698,81091.758,606.242,125.227,0,0,0,0,75.00,75.00,2,1,0,100.00,0,0,24,1,1,13,13,0,0,0,1721035558,0.02856,0.01538,0.95874,0.95929,-0.00612,-0.00081,0.00019,0.00617,0.95929,0.00401,0.00622,3,12123,0,26349,0.37850,0.13832,0.36544,100,1,100.864,107,1,3,2595,195192,0,0,0.000,89.652,2.977,0,0.000,191.992,3.895,0,0,1,0,5
PPG,7,365038,14603070587,139,76275,81544,81096.281,447.719,110.820,0,0,0,0,75.00,75.00,2,1,0,100.00,0,0,24,1,1,14,14,0,0,0,1721077103,0.02881,0.01709,0.95825,0.95884,-0.00665,-0.00055,-0.00141,0.00682,0.95884,0.00541,0.00769,3,12119,0,26349,0.37850,0.13832,0.36544,100,1,100.864,107,1,3,4296,195192,0,0,0.000,86.960,3.085,0,0.000,192.146,3.891,0,0,1,0,5
PPG,7,365039,14603110587,123,76218,81390,81099.219,290.781,77.648,0,0,0,0,75.00,75.00,2,1,0,100.00,0,0,24,1,1,15,15,0,0,0,1721116108,0.02734,0.01611,0.95435,0.95487,-0.00558,-0.00001,-0.00087,0.00565,0.95487,0.00824,0.00620,3,12158,0,26349,0.37850,0.13832,0.36544,100,1,100.864,107,1,3,4294,195192,0,0,0.000,86.960,3.085,0,0.000,192.146,3.891,0,0,1,0,5
PPG,7,365040,14603150587,124,76215,81386,81102.086,283.914,34.258,0,0,0,0,75.00,75.00,2,1,0,100.00,0,0,24,1,1,16,16,0,0,0,1721155039,0.02954,0.01709,0.95239,0.95300,-0.00612,-0.00028,-0.00167,0.00635,0.95300,0.00348,0.00635,3,12112,0,26349,0.37850,0.13832,0.36544,100,1,100.864,107,1,3,2594,195192,0,0,0.000,86.960,3.085,0,0.000,192.146,3.891,0,0,1,0,5
PPG,7,365041,14603190587,128,76214,81417,81105.234,311.766,-10.758,0,0,0,0,75.00,75.00,2,1,0,100.00,0,0,24,1,1,17,17,0,0,0,1721205886,0.02930,0.01440,0.95532,0.95588,-0.00532,-0.00001,-0.00247,0.00586,0.95588,0.00442,0.00586,3,21426,0,26350,0.37850,0.13832,0.36544,100,1,100.864,107,1,3,14446,195192,0,0,0.000,86.960,3.085,0,0.000,192.146,3.891,0,0,1,0,5
PPG,7,365042,14603230587,126,76239,81487,81109.055,377.945,-54.094,0,0,0,0,75.00,75.00,2,1,0,100.00,0,0,24,1,1,18,18,0,0,0,1721242326,0.02490,0.01465,0.95361,0.95405,-0.00585,-0.00161,-0.00141,0.00623,0.95631,0.00430,0.00625,3,12119,0,26350,0.37850,0.13832,0.36544,100,1,100.864,107,1,3,2585,195192,0,0,0.000,86.960,3.085,0,0.000,192.146,3.891,0,0,1,0,5
PPG,7,365043,14603270587,123,76250,81508,81113.047,394.953,-91.203,0,0,0,0,75.00,75.00,2,1,0,100.00,0,0,24,1,1,19,19,0,0,0,1721278668,0.02563,0.01904,0.95337,0.95390,-0.00585,-0.00055,-0.00114,0.00599,0.95390,0.00056,0.00677,3,12110,0,26350,0.37850,0.13832,0.36544,100,1,100.864,107,1,3,2586,195192,0,0,0.000,86.960,3.085,0,0.000,192.146,3.891,0,0,1,0,5
PPG,7,365044,14603310587,125,76269,81519,81117.109,401.891,-116.773,0,0,0,0,75.00,75.00,2,1,0,100.00,0,0,24,1,1,20,20,0,0,0,1721315019,0.02563,0.01367,0.95313,0.95357,-0.00638,-0.00081,-0.00141,0.00659,0.95662,0.00397,0.00659,3,12143,0,26350,0.37850,0.13832,0.36544,100,1,100.864,107,1,3,2595,195192,0,0,0.000,86.960,3.085,0,0.000,192.146,3.891,0,0,1,0,5
PPG,7,365045,14603350587,124,76244,81523,81121.172,401.828,-119.117,0,0,0,0,75.00,75.00,2,1,0,100.00,0,0,24,1,1,21,21,0,0,0,1721356583,0.02930,0.01685,0.95142,0.95202,-0.00612,-0.00001,-0.00087,0.00618,0.95987,0.00785,0.00712,3,12119,0,26350,0.37850,0.13832,0.36544,100,1,100.864,107,1,3,4300,195192,0,0,0.000,86.960,3.085,0,0.000,192.146,3.891,0,0,1,0,5
PPG,7,365046,14603390587,518,76242,81539,81125.352,413.648,-97.891,0,0,0,0,75.00,75.00,2,1,0,100.00,0,0,24,1,1,22,22,0,0,0,1721395517,0.02905,0.02148,0.95264,0.95332,-0.00692,-0.00241,-0.00167,0.00751,0.95662,0.00634,0.00751,3,12111,0,26350,0.36792,0.10587,0.28776,100,1,nan,115,1,3,2595,195192,0,0,0.000,86.960,3.085,0,0.000,192.146,3.891,0,0,1,0,5
PPG,7,365047,14603430587,173,76243,81534,81129.438,404.562,-75.641,0,0,0,0,75.00,75.00,2,1,0,100.00,0,0,24,1,1,23,23,0,0,0,1721437504,0.02905,0.01880,0.95410,0.95473,-0.00665,-0.00161,-0.00167,0.00704,0.95840,0.00512,0.00704,3,12110,0,26350,0.36792,0.10587,0.28776,100,1,nan,115,1,3,4296,195192,0,0,0.000,86.960,3.085,0,0.000,192.146,3.891,0,0,1,0,5
PPG,7,365048,14603470587,127,76243,81566,81133.805,432.195,-55.062,0,0,0,0,75.00,75.00,2,1,0,100.00,0,0,24,1,1,24,24,0,0,0,1721476556,0.02930,0.01929,0.95093,0.95157,-0.00665,-0.00028,-0.00034,0.00666,0.95810,0.00778,0.00680,3,12116,0,26350,0.36792,0.10587,0.28776,100,1,nan,115,1,3,4300,195192,0,0,0.000,86.960,3.085,0,0.000,192.146,3.891,0,0,1,0,5
PPG,7,365049,14603510587,125,76244,81586,81138.328,447.672,-40.312,0,0,0,0,75.00,75.00,2,1,0,100.00,0,0,24,1,1,25,25,0,0,0,1721515540,0.02905,0.01392,0.95581,0.95635,-0.00638,0.00105,-0.00141,0.00662,0.95635,0.00579,0.00684,3,12113,0,26350,0.36792,0.10587,0.28776,100,1,nan,115,1,3,2609,195192,0,0,0.000,86.960,3.085,0,0.000,192.146,3.891,0,0,1,0,5
PPG,7,365050,14603550587,125,76265,81646,81143.406,502.594,-20.852,0,0,0,0,75.00,75.00,2,1,0,100.00,0,0,24,1,1,26,26,0,0,0,1721557118,0.02686,0.01392,0.94800,0.94848,-0.00612,-0.00135,-0.00167,0.00648,0.95403,0.00555,0.00648,3,12106,0,26350,0.36792,0.10587,0.28776,100,1,nan,115,1,3,4294,195192,0,0,0.000,86.960,3.085,0,0.000,192.146,3.891,0,0,1,0,5
PPG,7,365051,14603590587,123,76272,81654,81148.516,505.484,-0.812,0,0,0,0,75.00,75.00,2,1,0,100.00,0,0,24,1,1,27,27,0,0,0,1721596039,0.02979,0.01587,0.95361,0.95421,-0.00558,-0.00108,-0.00114,0.00580,0.95421,0.00430,0.00692,3,12117,0,26350,0.36792,0.10587,0.28776,100,1,nan,115,1,3,4297,195192,0,0,0.000,86.960,3.085,0,0.000,192.146,3.891,0,0,1,0,5
PPG,7,365052,14603630587,125,76276,81683,81153.859,529.141,21.594,0,0,0,0,75.00,75.00,2,1,0,100.00,0,0,24,1,1,28,28,0,0,0,1721635035,0.03076,0.01514,0.95728,0.95789,-0.00612,-0.00028,-0.00167,0.00635,0.95789,0.00713,0.00675,3,12131,0,26350,0.36792,0.10587,0.28776,100,1,nan,115,1,3,2594,195192,0,0,0.000,86.960,3.085,0,0.000,192.146,3.891,0,0,1,0,5
PPG,7,365053,14603670587,123,76277,81708,81159.398,548.602,45.086,0,0,0,0,75.00,75.00,2,1,0,100.00,0,0,24,1,1,29,29,0,0,0,1721676556,0.03027,0.01733,0.95239,0.95303,-0.00585,-0.00055,-0.00114,0.00599,0.95570,0.00803,0.00599,3,12111,0,26350,0.36792,0.10587,0.28776,100,1,nan,115,1,3,4300,195192,0,0,0.000,86.960,3.085,0,0.000,192.146,3.891,0,0,1,0,5
PPG,7,365054,14603710587,124,76281,81753,81165.336,587.664,74.172,0,0,0,0,75.00,75.00,2,1,0,100.00,0,0,24,1,1,30,30,0,0,0,1721715471,0.02954,0.01514,0.95435,0.95492,-0.00612,-0.00081,-0.00114,0.00628,0.95492,0.00765,0.00719,3,12104,0,26350,0.36792,0.10587,0.28776,100,1,nan,115,1,3,2617,195192,0,0,0.000,86.960,3.085,0,0.000,192.146,3.891,0,0,1,0,5
PPG,7,365055,14603750587,123,76309,81780,81171.484,608.516,103.492,0,0,0,0,75.00,75.00,2,1,0,100.00,0,0,24,1,1,31,31,0,0,0,1721757029,0.02734,0.01733,0.95239,0.95294,-0.00665,0.00025,-0.00141,0.00680,0.95599,0.00305,0.00680,3,12117,0,26350,0.36792,0.10587,0.28776,100,1,nan,115,1,3,4297,195192,0,0,0.000,86.960,3.085,0,0.000,192.146,3.891,0,0,1,0,5
PPG,7,365056,14603790587,124,76313,81766,81177.430,588.570,128.508,0,0,0,0,75.00,75.00,2,1,0,100.00,0,0,24,1,1,0,0,0,0,0,1721795932,0.03027,0.01831,0.94971,0.95037,-0.00638,-0.00001,-0.00141,0.00654,0.95668,0.00374,0.00654,3,12112,0,26350,0.36792,0.10587,0.28776,100,1,nan,115,1,3,2596,195192,0,0,0.000,86.960,3.085,0,0.000,192.146,3.891,0,0,1,0,5
PPG,7,365057,14603830587,123,76260,81645,81182.102,462.898,131.008,0,0,0,0,75.00,75.00,2,1,0,100.00,0,0,24,1,1,1,1,0,0,0,1721837524,0.02905,0.01465,0.94629,0.94685,-0.00585,-0.00055,-0.00194,0.00619,0.95637,0.00952,0.00712,3,12143,0,26350,0.36792,0.10587,0.28776,100,1,nan,115,1,3,4298,195192,0,0,0.000,86.960,3.085,0,0.000,192.146,3.891,0,0,1,0,5
PPG,7,365058,14603870587,138,76213,81507,81185.352,321.648,111.859,0,0,0,0,75.00,75.00,2,1,0,100.00,0,0,24,1,1,2,2,0,0,0,1721876426,0.03052,0.01611,0.95483,0.95546,-0.00505,-0.00001,-0.00087,0.00513,0.95546,0.00372,0.00552,3,12117,0,26350,0.36792,0.10587,0.28776,100,1,nan,115,1,3,4306,195192,0,0,0.000,87.133,3.077,0,0.000,192.146,3.891,0,0,1,0,5
PPG,7,365059,14603910587,167,76196,81474,81188.234,285.766,77.812,0,0,0,0,75.00,75.00,2,1,0,100.00,0,0,24,1,1,3,3,0,0,0,1721915365,0.02637,0.02026,0.95239,0.95297,-0.00665,-0.00028,-0.00087,0.00671,0.95297,0.00326,0.00671,3,12119,0,26350,0.36792,0.10587,0.28776,100,1,nan,115,1,3,2601,195192,0,0,0.000,87.133,3.077,0,0.000,192.146,3.891,0,0,1,0,5
PPG,7,365060,14603950587,125,76220,81502,81191.375,310.625,42.578,0,0,0,0,75.00,75.00,2,1,0,100.00,0,0,24,1,1,4,4,0,0,0,1721957091,0.02612,0.02319,0.95947,0.96011,-0.00718,0.00052,-0.00141,0.00734,0.96011,0.01097,0.00734,3,12117,0,26350,0.36792,0.10587,0.28776,100,1,nan,115,1,3,4299,195192,0,0,0.000,87.133,3.077,0,0.000,192.146,3.891,0,0,1,0,5
PPG,7,365061,14603990587,162,76228,81553,81194.992,358.008,7.211,0,0,0,0,75.00,75.00,2,1,0,100.00,0,0,24,1,1,5,5,0,0,0,1721996089,0.02856,0.01733,0.94946,0.95005,-0.00585,-0.00081,-0.00061,0.00594,0.95960,0.00659,0.00617,3,12129,0,26350,0.36792,0.10587,0.28776,100,1,nan,115,1,3,4308,195192,0,0,0.000,87.133,3.077,0,0.000,192.146,3.891,0,0,1,0,5
PPG,7,365062,14604030587,132,76235,81607,81199.109,407.891,-23.508,0,0,0,0,75.00,75.00,2,1,0,100.00,0,0,24,1,1,6,6,0,0,0,1722035487,0.02612,0.01904,0.95239,0.95294,-0.00692,0.00158,-0.00114,0.00719,0.95499,0.00494,0.00719,3,12277,0,26350,0.36792,0.10587,0.28776,100,1,nan,115,1,3,2630,195192,0,0,0.000,87.133,3.077,0,0.000,192.146,3.891,0,0,1,0,5
PPG,7,365063,14604070587,123,76259,81651,81203.625,447.375,-47.086,0,0,0,0,75.00,75.00,2,1,0,100.00,0,0,24,1,1,7,7,0,0,0,1722077441,0.02563,0.01685,0.95947,0.95996,-0.00612,-0.00055,-0.00114,0.00625,0.95996,0.00684,0.00625,3,12259,0,26350,0.36792,0.10587,0.28776,100,1,nan,115,1,3,4344,195192,0,0,0.000,87.133,3.077,0,0.000,192.146,3.891,0,0,1,0,5
PPG,7,365064,14604110587,125,76262,81647,81208.062,438.938,-53.203,0,0,0,0,75.00,75.00,2,1,0,100.00,0,0,24,1,1,8,8,0,0,0,1722116662,0.02612,0.01978,0.95532,0.95588,-0.00665,0.00105,0.00019,0.00674,0.95588,0.00613,0.00674,3,12216,0,26350,0.36792,0.10587,0.28776,100,1,nan,115,1,3,4357,195192,0,0,0.000,87.133,3.077,0,0.000,192.146,3.891,0,0,1,0,5
PPG,7,365065,14604150587,141,76257,81638,81212.359,425.641,-40.242,1,0,0,0,75.00,75.00,2,1,0,100.00,0,0,24,1,1,9,9,0,0,0,1722156146,0.02710,0.01489,0.95288,0.95338,-0.00585,-0.00055,-0.00167,0.00611,0.95385,0.00398,0.00701,3,12253,0,26350,0.36792,0.10587,0.28776,100,1,nan,115,1,3,4335,195192,0,0,0.000,87.133,3.077,0,250.125,192.146,3.891,1,0,1,0,5
PPG,7,365066,14604190587,130,76244,81645,81216.688,428.312,-21.109,0,0,0,0,75.00,75.00,2,1,0,100.00,0,0,24,1,1,10,10,0,0,0,1722207493,0.02954,0.01904,0.95532,0.95597,-0.00612,-0.00001,-0.00141,0.00628,0.95597,0.00719,0.00719,3,24288,0,26351,0.36792,0.10587,0.28776,100,1,nan,115,1,3,14594,195192,0,0,0.000,87.133,3.077,0,0.000,192.146,3.891,0,0,1,0,5
PPG,7,365067,14604230587,129,76250,81652,81221.039,430.961,-5.578,0,0,0,0,75.00,75.00,2,1,0,100.00,0,0,24,1,1,11,11,0,0,0,1722232091,0.02881,0.01562,0.95386,0.95442,-0.00665,0.00079,-0.00194,0.00697,0.95493,0.00104,0.00705,2,12317,0,26351,0.36792,0.10587,0.28776,100,1,nan,115,1,3,2655,195192,0,0,0.000,87.133,3.077,0,0.000,192.146,3.891,0,0,1,0,5
PPG,7,365068,14604270587,142,76264,81683,81225.656,457.344,7.141,0,0,0,0,75.00,75.00,2,1,0,100.00,0,0,24,1,1,12,12,0,0,0,1722276687,0.02881,0.01636,0.94727,0.94784,-0.00612,-0.00055,-0.00114,0.00625,0.95326,0.00328,0.00631,3,12233,0,26352,0.36792,0.10587,0.28776,100,1,nan,115,1,3,4329,195192,0,0,0.000,87.133,3.077,0,0.000,192.146,3.891,0,0,1,0,5
PPG,7,365069,14604310587,125,76267,81713,81230.531,482.469,15.938,0,0,0,0,75.00,75.00,2,1,512,100.00,0,0,24,1,1,13,13,0,0,0,1722316071,0.02856,0.01758,0.95142,0.95201,-0.00558,-0.00081,-0.00087,0.00571,0.95295,0.00510,0.00628,3,12263,0,26352,0.36792,0.10587,0.28776,100,1,nan,115,1,3,2632,195192,0,0,0.000,87.133,3.077,0,0.000,192.146,3.891,0,0,1,0,5
PPG,7,365070,14604350587,131,76266,81718,81235.406,482.594,21.906,0,0,0,0,75.00,75.00,2,1,512,100.00,0,0,24,1,1,14,14,0,0,0,1722358035,0.02930,0.01367,0.95776,0.95831,-0.00612,-0.00028,-0.00194,0.00642,0.95831,0.01026,0.00642,3,12215,0,26352,0.36792,0.10587,0.28776,100,1,nan,115,1,3,4345,195192,0,0,0.000,87.133,3.077,0,0.000,192.146,3.891,0,0,1,0,5
PPG,7,365071,14604390587,514,76250,81734,81240.391,493.609,30.336,0,0,0,0,75.00,75.00,2,1,512,100.00,0,1,24,1,1,15,15,0,0,0,1722397304,0.02246,0.02002,0.95703,0.95750,-0.00585,-0.00001,-0.00194,0.00616,0.95750,0.00877,0.00703,3,12231,0,26352,0.35701,0.08643,0.24209,100,1,nan,75,1,3,4335,195192,0,0,0.000,82.050,3.301,0,0.000,192.146,3.891,0,0,1,0,5
PPG,7,365072,14604430587,191,76276,81751,81245.500,505.500,43.078,0,0,0,0,75.00,75.00,2,1,512,100.00,0,1,24,1,1,16,16,0,0,0,1722437036,0.02881,0.01660,0.94971,0.95029,-0.00532,-0.00055,-0.00034,0.00536,0.95878,0.00849,0.00615,3,12243,0,26352,0.35701,0.08643,0.24209,100,1,nan,75,1,3,4336,195192,0,0,0.000,82.050,3.301,0,0.000,192.146,3.891,0,0,1,0,5
PPG,7,365073,14604470587,127,76251,81736,81250.406,485.594,54.680,0,0,0,0,75.00,75.00,2,1,512,100.00,0,1,24,1,1,17,17,0,0,0,1722476329,0.02661,0.02100,0.95776,0.95836,-0.00558,-0.00028,-0.00194,0.00592,0.95836,0.00708,0.00676,3,12226,0,26352,0.35701,0.08643,0.24209,100,1,nan,75,1,3,4313,195192,0,0,0.000,82.050,3.301,0,0.000,192.146,3.891,0,0,1,0,5
PPG,7,365074,14604510587,134,76263,81758,81255.484,502.516,69.570,0,0,0,0,75.00,75.00,2,1,512,100.00,0,1,24,1,1,18,18,0,0,0,1722515564,0.02515,0.01367,0.94897,0.94941,-0.00558,-0.00001,-0.00221,0.00600,0.95050,0.01051,0.00600,3,12220,0,26352,0.35701,0.08643,0.24209,100,1,nan,75,1,3,2627,195192,0,0,0.000,82.050,3.301,0,0.000,192.146,3.891,0,0,1,0,5
PPG,7,365075,14604550587,123,76277,81753,81260.461,492.539,80.922,0,0,0,0,75.00,75.00,2,1,512,100.00,0,1,24,1,1,19,19,0,0,0,1722557455,0.02612,0.01245,0.95166,0.95210,-0.00612,-0.00081,-0.00087,0.00623,0.95480,0.00539,0.00727,3,12234,0,26352,0.35701,0.08643,0.24209,100,1,nan,75,1,3,4338,195192,0,0,0.000,82.050,3.301,0,0.000,192.146,3.891,0,0,1,0,5
PPG,7,365076,14604590587,124,76259,81733,81265.188,467.812,85.430,0,0,0,0,75.00,75.00,2,1,512,100.00,0,1,24,1,1,20,20,0,0,0,1722596714,0.02783,0.02002,0.94946,0.95008,-0.00638,-0.00055,-0.00221,0.00678,0.96124,0.00948,0.00678,3,12227,0,26352,0.35701,0.08643,0.24209,100,1,nan,75,1,3,4325,195192,0,0,0.000,82.050,3.301,0,0.000,192.146,3.891,0,0,1,0,5
PPG,7,365077,14604630587,141,76172,81502,81267.555,234.445,61.719,0,0,0,0,75.00,75.00,2,1,512,100.00,0,1,24,1,1,21,21,0,0,0,1722635930,0.03101,0.01514,0.94995,0.95058,-0.00558,-0.00028,-0.00221,0.00601,0.96032,0.01081,0.00647,3,12121,0,26352,0.35701,0.08643,0.24209,100,1,nan,75,1,3,2610,195192,0,0,0.000,76.274,3.598,0,0.000,189.367,3.960,0,0,1,0,5
PPG,7,365078,14604670587,125,76061,81202,81266.898,-64.898,0.969,0,0,0,0,75.00,75.00,2,1,512,100.00,0,1,24,1,1,22,22,0,0,0,1722677778,0.02979,0.01685,0.95386,0.95447,-0.00558,-0.00055,-0.00141,0.00578,0.95538,0.00481,0.00643,3,12110,0,26352,0.35701,0.08643,0.24209,100,1,nan,75,1,3,4302,195192,0,0,0.000,76.274,3.598,0,0.000,189.367,3.960,0,0,1,0,5
PPG,7,365079,14604710587,124,76031,81084,81265.070,-181.070,-74.812,0,0,0,0,75.00,75.00,2,1,512,100.00,0,1,24,1,1,23,23,0,0,0,1722716721,0.02832,0.01807,0.95728,0.95786,-0.00585,-0.00055,-0.00141,0.00604,0.95786,0.00289,0.00658,3,12119,0,26352,0.35701,0.08643,0.24209,100,1,nan,75,1,3,4303,195192,0,0,0.000,76.274,3.598,0,0.000,189.367,3.960,0,0,1,0,5
PPG,7,365080,14604750587,127,76035,81091,81263.328,-172.328,-146.406,0,0,0,0,75.00,75.00,2,1,512,100.00,0,1,24,1,1,24,24,0,0,0,1722755775,0.02856,0.01880,0.95459,0.95520,-0.00692,-0.00135,-0.00221,0.00738,0.95581,0.00220,0.00738,3,12152,0,26352,0.35701,0.08643,0.24209,100,1,nan,75,1,3,2600,195192,0,0,0.000,76.274,3.598,0,0.000,189.367,3.960,0,0,1,0,5
PPG,7,365081,14604790587,124,76064,81187,81262.562,-75.562,-209.680,0,0,0,0,75.00,75.00,2,1,512,100.00,0,1,24,1,1,25,25,0,0,0,1722797350,0.02686,0.01880,0.95459,0.95515,-0.00638,-0.00081,-0.00167,0.00665,0.95515,0.00374,0.00706,3,12130,0,26352,0.35701,0.08643,0.24209,100,1,nan,75,1,3,4305,195192,0,0,0.000,76.274,3.598,0,0.000,189.367,3.960,0,0,1,0,5
PPG,7,365082,14604830587,125,76096,81287,81262.805,24.195,-260.250,0,0,0,0,75.00,75.00,2,1,512,100.00,0,1,24,1,1,26,26,0,0,0,1722836377,0.03027,0.01270,0.95386,0.95442,-0.00532,-0.00055,-0.00141,0.00553,0.96202,0.01272,0.00583,3,12129,0,26352,0.35701,0.08643,0.24209,100,1,nan,75,1,3,4315,195192,0,0,0.000,76.274,3.598,0,0.000,189.367,3.960,0,0,1,0,5
PPG,7,365083,14604870587,123,76131,81374,81263.914,110.086,-297.688,0,0,0,0,75.00,75.00,2,1,512,100.00,0,1,24,1,1,27,27,0,0,0,1722875379,0.03198,0.01514,0.95215,0.95281,-0.00452,0.00025,-0.00167,0.00482,0.95969,0.00952,0.00499,3,12122,0,26352,0.35701,0.08643,0.24209,100,1,nan,75,1,3,2597,195192,0,0,0.000,76.274,3.598,0,0.000,189.367,3.960,0,0,1,0,5
PPG,7,365084,14604910587,125,76149,81447,81265.742,181.258,-295.539,0,0,0,0,75.00,75.00,2,1,512,100.00,0,1,24,1,1,28,28,0,0,0,1722917002,0.02710,0.01733,0.94946,0.95001,-0.00532,-0.00028,-0.00327,0.00625,0.95001,0.00308,0.00625,3,12136,0,26352,0.35701,0.08643,0.24209,100,1,nan,75,1,3,4301,195192,0,0,0.000,76.274,3.598,0,0.000,189.367,3.960,0,0,1,0,5
PPG,7,365085,14604950587,123,76168,81498,81268.062,229.938,-246.258,0,0,0,0,75.00,75.00,2,1,512,100.00,0,1,24,1,1,29,29,0,0,0,1722956003,0.02759,0.01880,0.95728,0.95786,-0.00745,-0.00268,-0.00194,0.00815,0.96220,0.01220,0.00815,3,12171,0,26352,0.35701,0.08643,0.24209,100,1,nan,75,1,3,2594,195192,0,0,0.000,76.274,3.598,0,0.000,189.367,3.960,0,0,1,0,5
PPG,7,365086,14604990587,127,76203,81643,81271.812,371.188,-166.297,0,0,0,0,75.00,75.00,2,1,512,100.00,0,1,24,1,1,30,30,0,0,0,1722997616,0.02856,0.02051,0.95459,0.95524,-0.00585,-0.00055,-0.00141,0.00604,0.95604,0.00602,0.00641,3,12117,0,26352,0.35701,0.08643,0.24209,100,1,nan,75,1,3,4298,195192,0,0,0.000,76.274,3.598,0,0.000,189.367,3.960,0,0,1,0,5
PPG,7,365087,14605030587,123,76264,81812,81277.211,534.789,-71.297,0,0,0,0,75.00,75.00,2,1,512,100.00,0,1,24,1,1,31,31,0,0,0,1723036626,0.03003,0.01562,0.95801,0.95861,-0.00505,-0.00055,-0.00141,0.00527,0.95861,0.00474,0.00562,3,12109,0,26352,0.35701,0.08643,0.24209,100,1,nan,75,1,3,4297,195192,0,0,0.000,76.274,3.598,0,0.000,189.367,3.960,0,0,1,0,5
PPG,7,365088,14605070587,128,76281,81868,81283.117,584.883,16.742,0,0,0,0,75.00,75.00,2,1,512,100.00,0,1,24,1,1,0,0,0,0,0,1723075624,0.02686,0.01489,0.95581,0.95630,-0.00558,0.00052,-0.00087,0.00568,0.95630,0.00352,0.00682,3,12107,0,26352,0.35701,0.08643,0.24209,100,1,nan,75,1,3,2599,195192,0,0,0.000,76.274,3.598,0,0.000,189.367,3.960,0,0,1,0,5
PPG,7,365089,14605110587,123,76281,81871,81288.992,582.008,92.258,0,0,0,0,75.00,75.00,2,1,512,100.00,0,1,24,1,1,1,1,0,0,0,1723117139,0.02783,0.01709,0.95190,0.95246,-0.00665,-0.00055,-0.00167,0.00688,0.95363,0.00364,0.00688,3,12106,0,26352,0.35701,0.08643,0.24209,100,1,nan,75,1,3,4296,195192,0,0,0.000,76.274,3.598,0,0.000,189.367,3.960,0,0,1,0,5
PPG,7,365090,14605150587,124,76246,81823,81294.336,528.664,151.156,0,0,0,0,75.00,75.00,2,1,512,100.00,0,1,24,1,1,2,2,0,0,0,1723156088,0.02954,0.01929,0.95190,0.95256,-0.00558,-0.00028,-0.00274,0.00623,0.95870,0.00614,0.00699,3,12134,0,26352,0.35701,0.08643,0.24209,100,1,nan,75,1,3,2644,195192,0,0,0.000,76.274,3.598,0,0.000,189.367,3.960,0,0,1,0,5
PPG,7,365091,14605190587,214,76218,81785,81299.242,485.758,196.891,0,0,0,0,75.00,75.00,2,1,512,100.00,0,1,24,1,1,3,3,0,0,0,1723207266,0.03027,0.01611,0.95142,0.95203,-0.00612,0.00052,-0.00141,0.00630,0.95887,0.00631,0.00713,3,21434,0,26353,0.35701,0.08643,0.24209,100,1,nan,75,1,3,14458,195192,0,0,0.000,76.274,3.598,0,0.000,189.367,3.960,0,0,1,0,5
PPG,7,365092,14605230587,128,76235,81797,81304.219,492.781,237.312,0,0,0,0,75.00,75.00,2,1,512,100.00,0,1,24,1,1,4,4,0,0,0,1723231807,0.02783,0.01685,0.95605,0.95661,-0.00558,0.00052,-0.00114,0.00572,0.95837,0.00634,0.00623,2,12163,0,26353,0.35701,0.08643,0.24209,100,1,nan,75,1,3,2585,195192,0,0,0.000,76.274,3.598,0,0.000,189.367,3.960,0,0,1,0,5
PPG,7,365093,14605270587,162,76228,81763,81308.805,454.195,253.102,0,0,0,0,75.00,75.00,2,1,512,100.00,0,1,24,1,1,5,5,0,0,0,1723276062,0.02856,0.01807,0.95288,0.95348,-0.00612,-0.00081,-0.00167,0.00639,0.95348,0.00599,0.00676,3,12133,0,26353,0.35701,0.08643,0.24209,100,1,nan,75,1,3,2595,195192,0,0,0.000,76.274,3.598,0,0.000,189.367,3.960,0,0,1,0,5
PPG,7,365094,14605310587,140,76196,81731,81313.023,417.977,242.883,0,0,0,0,75.00,75.00,2,1,512,100.00,0,1,24,1,1,6,6,0,0,0,1723317922,0.02832,0.01782,0.95386,0.95444,-0.00532,-0.00028,-0.00167,0.00558,0.95583,0.00389,0.00593,3,12189,0,26353,0.35701,0.08643,0.24209,100,1,nan,75,1,3,4366,195192,0,0,0.000,76.274,3.598,0,0.000,189.367,3.960,0,0,1,0,5
PPG,7,365095,14605350587,133,76166,81703,81316.922,386.078,221.812,0,0,0,0,75.00,75.00,2,1,512,100.00,0,1,24,1,1,7,7,0,0,0,1723357145,0.02954,0.01636,0.95044,0.95104,-0.00612,-0.00028,-0.00141,0.00628,0.95463,0.00553,0.00628,3,12334,0,26353,0.35701,0.08643,0.24209,100,1,nan,75,1,3,4370,195192,0,0,0.000,76.274,3.598,0,0.000,189.367,3.960,0,0,1,0,5
PPG,7,365096,14605390587,523,76173,81716,81320.914,395.086,200.508,0,0,0,0,75.00,75.00,2,1,512,100.00,0,1,24,1,1,8,8,0,0,0,1723396694,0.02930,0.01978,0.95215,0.95280,-0.00532,-0.00028,-0.00087,0.00540,0.95332,0.00422,0.00540,3,12255,0,26353,0.27647,0.09546,0.34526,100,1,nan,51,1,3,4334,195192,0,0,0.000,76.274,3.598,0,0.000,189.367,3.960,0,0,1,0,5
PPG,7,365097,14605430587,185,76143,81601,81323.719,277.281,163.852,0,1,0,0,75.00,75.00,2,1,512,100.00,0,1,24,1,1,9,9,0,0,0,1723436448,0.02783,0.01831,0.95679,0.95737,-0.00638,-0.00001,-0.00141,0.00654,0.95737,0.00444,0.00654,3,12254,0,26353,0.27647,0.09546,0.34526,100,1,nan,51,1,3,2616,195192,0,0,0.000,76.274,3.598,0,0.000,189.367,3.960,0,0,1,0,5
PPG,7,365098,14605470587,135,76020,81263,81323.109,-60.109,86.227,0,0,0,0,75.00,75.00,2,1,512,100.00,0,1,24,1,1,10,10,0,0,0,1723478467,0.02832,0.01562,0.95703,0.95758,-0.00558,0.00105,-0.00061,0.00571,0.95758,0.00312,0.00624,3,12284,0,26353,0.27647,0.09546,0.34526,100,1,nan,51,1,3,4350,195192,0,0,0.000,76.274,3.598,0,0.000,189.367,3.960,0,0,1,0,5
PPG,7,365099,14605510587,149,75925,81030,81320.180,-290.180,-20.641,0,0,0,0,75.00,75.00,2,1,512,100.00,0,1,24,1,1,11,11,0,0,0,1723517905,0.02563,0.01416,0.94604,0.94650,-0.00558,0.00025,-0.00167,0.00583,0.95585,0.00935,0.00624,3,12263,0,26353,0.27647,0.09546,0.34526,100,1,nan,51,1,3,4362,195192,0,0,0.000,76.274,3.598,0,0.000,189.367,3.960,0,0,1,0,5
PPG,7,365100,14605550587,126,75919,80991,81316.891,-325.891,-125.930,0,0,0,0,75.00,75.00,2,1,512,100.00,0,1,24,1,1,12,12,0,0,0,1723557276,0.02734,0.02124,0.95605,0.95668,-0.00612,0.00025,-0.00194,0.00642,0.96026,0.01376,0.00642,3,12268,0,26353,0.27647,0.09546,0.34526,100,1,nan,51,1,3,4336,195192,0,0,0.000,76.274,3.598,0,0.000,189.367,3.960,0,0,1,0,5
PPG,7,365101,14605590587,135,75927,81005,81313.773,-308.773,-220.539,1,0,1,0,0.00,nan,1,2,0,100.00,0,1,24,1,1,13,13,0,0,0,1723596588,0.02490,0.01758,0.95703,0.95752,-0.00585,-0.00001,-0.00194,0.00616,0.95752,0.00344,0.00628,3,12254,0,26353,0.27647,0.09546,0.34526,100,1,nan,51,1,3,2636,195192,0,0,181.836,76.274,3.598,1,550.789,189.367,3.960,1,1,1,0,1
PPG,7,365102,14605630587,121,75942,81089,81311.523,-222.523,-298.359,0,0,0,0,0.00,nan,1,2,0,100.00,0,1,24,1,1,14,14,0,0,0,1723638516,0.02686,0.01611,0.94800,0.94852,-0.00558,-0.00055,-0.00141,0.00578,0.95511,0.00660,0.00641,3,12285,0,26353,0.27647,0.09546,0.34526,100,1,nan,51,1,3,4335,195192,0,0,0.000,75.892,3.485,0,0.000,188.727,3.882,0,0,1,0,1
PPG,7,365103,14605670587,117,75971,81154,81309.945,-155.945,-367.641,0,0,0,0,0.00,nan,1,2,0,100.00,0,1,24,1,1,15,15,0,0,0,1723677875,0.03320,0.01685,0.94775,0.94848,-0.00505,0.00025,-0.00034,0.00507,0.95643,0.00915,0.00593,3,12294,0,26353,0.27647,0.09546,0.34526,100,1,nan,51,1,3,4355,195192,0,0,0.000,75.892,3.485,0,0.000,188.727,3.882,0,0,1,0,1
PPG,7,365104,14605710587,126,75977,81167,81308.516,-141.516,-415.641,0,0,0,0,0.00,nan,1,2,0,100.00,0,1,24,1,1,16,16,0,0,0,1723717085,0.02686,0.01587,0.94946,0.94998,-0.00532,0.00079,-0.00087,0.00545,0.95286,0.00437,0.00576,3,12249,0,26353,0.27647,0.09546,0.34526,100,1,nan,51,1,3,4331,195192,0,0,0.000,75.892,3.485,0,0.000,188.727,3.882,0,0,1,0,1
PPG,7,365105,14605750587,117,75975,81158,81307.008,-149.008,-413.641,0,0,0,0,0.00,nan,1,2,0,100.00,0,1,24,1,1,17,17,0,0,0,1723756278,0.02686,0.01709,0.95483,0.95536,-0.00612,-0.00081,-0.00061,0.00620,0.95536,0.00337,0.00620,3,12237,0,26353,0.27647,0.09546,0.34526,100,1,nan,51,1,3,2645,195192,0,0,0.000,75.892,3.485,0,0.000,188.727,3.882,0,0,1,0,1
PPG,7,365106,14605790587,125,75992,81182,81305.758,-123.758,-368.883,0,0,0,0,0.00,nan,1,2,0,100.00,0,1,24,1,1,18,18,0,0,0,1723798178,0.02515,0.01758,0.95386,0.95435,-0.00638,-0.00055,-0.00087,0.00647,0.95435,0.00481,0.00659,3,12241,0,26353,0.27647,0.09546,0.34526,100,1,nan,51,1,3,4337,195192,0,0,0.000,75.892,3.485,0,0.000,188.727,3.882,0,0,1,0,1
PPG,7,365107,14605830587,117,75985,81213,81304.828,-91.828,-307.211,0,0,0,0,0.00,nan,1,2,0,100.00,0,1,24,1,1,19,19,0,0,0,1723837301,0.02930,0.01489,0.95557,0.95613,-0.00505,-0.00055,-0.00114,0.00521,0.95830,0.00723,0.00732,3,12210,0,26353,0.27647,0.09546,0.34526,100,1,nan,51,1,3,4332,195192,0,0,0.000,75.892,3.485,0,0.000,188.727,3.882,0,0,1,0,1
PPG,7,365108,14605870587,125,76012,81278,81304.562,-26.562,-238.711,0,0,0,0,0.00,nan,1,2,0,100.00,0,1,24,1,1,20,20,0,0,0,1723876548,0.02808,0.02002,0.95044,0.95106,-0.00558,-0.00001,-0.00247,0.00611,0.95678,0.00447,0.00710,3,12271,0,26353,0.27647,0.09546,0.34526,100,1,nan,51,1,3,2623,195192,0,0,0.000,75.892,3.485,0,0.000,188.727,3.882,0,0,1,0,1
PPG,7,365109,14605910587,118,76029,81344,81304.953,39.047,-175.938,0,0,0,0,0.00,nan,1,2,0,100.00,0,1,24,1,1,21,21,0,0,0,1723918436,0.02734,0.02026,0.95142,0.95202,-0.00558,-0.00081,-0.00061,0.00568,0.95291,0.00185,0.00697,3,12225,0,26353,0.27647,0.09546,0.34526,100,1,nan,51,1,3,4343,195192,0,0,0.000,75.892,3.485,0,0.000,188.727,3.882,0,0,1,0,1
PPG,7,365110,14605950587,191,76043,81386,81305.766,80.234,-120.938,0,0,0,0,0.00,nan,1,2,0,100.00,0,1,24,1,1,22,22,0,0,0,1723957678,0.02612,0.01978,0.95532,0.95588,-0.00558,-0.00028,-0.00194,0.00592,0.95588,0.00982,0.00597,3,12179,0,26353,0.27647,0.09546,0.34526,100,1,nan,51,1,3,4362,195192,0,0,0.000,75.892,3.485,0,0.000,188.727,3.882,0,0,1,0,1
PPG,7,365111,14605990587,120,76057,81418,81306.891,111.109,-66.742,0,0,0,0,0.00,nan,1,2,0,100.00,0,1,24,1,1,23,23,0,0,0,1723997018,0.02930,0.02197,0.94824,0.94895,-0.00558,-0.00028,-0.00194,0.00592,0.95939,0.00653,0.00701,3,12174,0,26353,0.27647,0.09546,0.34526,100,1,nan,51,1,3,4343,195192,0,0,0.000,75.892,3.485,0,0.000,188.727,3.882,0,0,1,0,1
PPG,7,365112,14606030587,117,76059,81460,81308.422,151.578,-6.742,0,0,0,0,0.00,nan,1,2,0,100.00,0,1,24,1,1,24,24,0,0,0,1724036064,0.03296,0.02002,0.95215,0.95293,-0.00558,-0.00108,-0.00061,0.00572,0.96102,0.01207,0.00675,3,12150,0,26353,0.27647,0.09546,0.34526,100,1,nan,51,1,3,2595,195192,0,0,0.000,75.892,3.485,0,0.000,188.727,3.882,0,0,1,0,1
PPG,7,365113,14606070587,117,76061,81500,81310.336,189.664,51.836,0,0,0,0,0.00,nan,1,2,0,100.00,0,1,24,1,1,25,25,0,0,0,1724077549,0.02881,0.01660,0.94849,0.94907,-0.00585,0.00105,-0.00114,0.00605,0.95362,0.00455,0.00605,3,12132,0,26353,0.27647,0.09546,0.34526,100,1,nan,51,1,3,4296,195192,0,0,0.000,75.892,3.485,0,0.000,188.727,3.882,0,0,1,0,1
PPG,7,365114,14606110587,117,76093,81569,81312.922,256.078,110.789,0,0,0,0,0.00,nan,1,2,0,100.00,0,1,24,1,1,26,26,0,0,0,1724116504,0.02905,0.01440,0.96167,0.96222,-0.00585,-0.00001,-0.00194,0.00616,0.96222,0.00869,0.00616,3,12115,0,26353,0.27647,0.09546,0.34526,100,1,nan,51,1,3,2595,195192,0,0,0.000,75.892,3.485,0,0.000,188.727,3.882,0,0,1,0,1
PPG,7,365115,14606150587,117,76119,81611,81315.906,295.094,162.961,0,0,0,0,0.00,nan,1,2,0,100.00,0,1,24,1,1,27,27,0,0,0,1724157976,0.02612,0.01489,0.95654,0.95702,-0.00612,0.00025,-0.00061,0.00615,0.95702,0.00943,0.00637,3,12128,0,26353,0.27647,0.09546,0.34526,100,1,nan,51,1,3,4296,195192,0,0,0.000,75.892,3.485,0,0.000,188.727,3.882,0,0,1,0,1
PPG,7,365116,14606190587,125,76129,81652,81319.266,332.734,210.164,0,0,0,0,0.00,nan,1,2,0,100.00,0,1,24,1,1,28,28,0,0,0,1724208853,0.02759,0.01880,0.95801,0.95859,-0.00585,-0.00081,-0.00114,0.00602,0.95859,0.00672,0.00602,3,24047,0,26354,0.27647,0.09546,0.34526,100,1,nan,51,1,3,14463,195192,0,0,0.000,75.892,3.485,0,0.000,188.727,3.882,0,0,1,0,1
PPG,7,365117,14606230587,119,76143,81676,81322.836,353.164,247.844,0,0,0,0,0.00,nan,1,2,0,100.00,0,1,24,1,1,29,29,0,0,0,1724233111,0.02734,0.01636,0.95532,0.95585,-0.00692,-0.00081,-0.00087,0.00702,0.95585,0.00526,0.00702,2,12161,0,26354,0.27647,0.09546,0.34526,100,1,nan,51,1,3,2590,195192,0,0,0.000,75.892,3.485,0,0.000,188.727,3.882,0,0,1,0,1
PPG,7,365118,14606270587,123,76113,81591,81325.516,265.484,256.156,0,0,0,0,0.00,nan,1,2,0,100.00,0,1,24,1,1,30,30,0,0,0,1724277181,0.02710,0.01489,0.95239,0.95289,-0.00692,0.00025,-0.00194,0.00719,0.95355,0.00764,0.00719,3,12114,0,26354,0.27647,0.09546,0.34526,100,1,nan,51,1,3,4327,195192,0,0,0.000,75.892,3.485,0,0.000,188.727,3.882,0,0,1,0,1
PPG,7,365119,14606310587,132,75988,81274,81325.000,-51.000,217.391,0,0,0,0,0.00,nan,1,2,0,100.00,0,1,24,1,1,31,31,0,0,0,1724316103,0.02759,0.01636,0.95142,0.95196,-0.00612,-0.00135,-0.00141,0.00642,0.95712,0.00516,0.00693,3,12113,0,26354,0.27647,0.09546,0.34526,100,1,nan,51,1,3,2600,195192,0,0,0.000,75.892,3.485,0,0.000,188.727,3.882,0,0,1,0,1
PPG,7,365120,14606350587,119,75915,81053,81322.281,-269.281,150.430,0,0,0,0,0.00,nan,1,2,0,100.00,0,1,24,1,1,0,0,0,0,0,1724357609,0.02490,0.01904,0.95361,0.95413,-0.00585,-0.00028,-0.00061,0.00589,0.95570,0.00530,0.00706,3,12132,0,26354,0.27647,0.09546,0.34526,100,1,nan,51,1,3,4294,195192,0,0,0.000,75.892,3.485,0,0.000,188.727,3.882,0,0,1,0,1
PPG,7,365121,14606390587,511,75923,81040,81319.461,-279.461,73.109,0,0,0,0,0.00,nan,1,2,0,100.00,0,1,24,1,1,1,1,0,0,0,1724396550,0.02808,0.01953,0.95239,0.95301,-0.00505,-0.00055,-0.00141,0.00527,0.95301,0.00490,0.00545,3,12145,0,26354,0.27136,0.15652,0.57679,100,1,95.580,57,1,3,2595,195192,0,0,0.000,75.892,3.485,0,0.000,188.727,3.882,0,0,1,0,1
PPG,7,365122,14606430587,168,75945,81094,81317.203,-223.203,-1.000,0,0,0,0,0.00,nan,1,2,0,100.00,0,1,24,1,1,2,2,0,0,0,1724438520,0.03174,0.01709,0.95532,0.95600,-0.00772,-0.00081,-0.00087,0.00781,0.95807,0.00507,0.00781,3,12115,0,26354,0.27136,0.15652,0.57679,100,1,95.580,57,1,3,4294,195192,0,0,0.000,75.892,3.485,0,0.000,188.727,3.882,0,0,1,0,1
PPG,7,365123,14606470587,119,75941,81149,81315.523,-166.523,-72.609,0,1,0,0,0.00,nan,1,2,0,100.00,0,1,24,1,1,3,3,0,0,0,1724477487,0.02930,0.01733,0.95361,0.95422,-0.00585,0.00025,-0.00087,0.00592,0.95842,0.01398,0.00679,3,12123,0,26354,0.27136,0.15652,0.57679,100,1,95.580,57,1,3,4302,195192,0,0,0.000,75.892,3.485,0,0.000,188.727,3.882,0,0,1,0,1
PPG,7,365124,14606510587,123,75932,81169,81314.055,-145.055,-145.141,0,0,0,0,0.00,nan,1,2,0,100.00,0,1,24,1,1,4,4,0,0,0,1724516548,0.02661,0.01660,0.95801,0.95852,-0.00585,0.00025,-0.00221,0.00626,0.95852,0.00698,0.00669,3,12118,0,26354,0.27136,0.15652,0.57679,100,1,95.580,57,1,3,2594,195192,0,0,0.000,75.892,3.485,0,0.000,188.727,3.882,0,0,1,0,1
PPG,7,365125,14606550587,117,75962,81194,81312.852,-118.852,-203.648,0,0,0,0,0.00,nan,1,2,0,100.00,0,1,24,1,1,5,5,0,0,0,1724558044,0.02539,0.01709,0.94824,0.94874,-0.00665,-0.00028,-0.00087,0.00671,0.95335,0.01340,0.00750,3,12118,0,26354,0.27136,0.15652,0.57679,100,1,95.580,57,1,3,4298,195192,0,0,0.000,75.892,3.485,0,0.000,188.727,3.882,0,0,1,0,1
PPG,7,365126,14606590587,143,75963,81188,81311.602,-123.602,-216.242,1,0,1,1000,60.00,60.00,2,1,0,100.00,0,1,24,1,1,6,6,0,0,0,1724597011,0.02734,0.01685,0.95044,0.95098,-0.00558,-0.00055,-0.00221,0.00603,0.95866,0.00927,0.00640,3,12184,0,26354,0.27136,0.15652,0.57679,100,1,95.580,57,1,3,2598,195192,0,0,248.602,75.892,3.485,1,671.797,188.727,3.882,1,1,1,0,2
PPG,7,365127,14606630587,119,75960,81211,81310.594,-99.594,-193.562,0,0,0,0,60.00,60.00,2,1,0,100.00,0,1,24,1,1,7,7,0,0,0,1724638613,0.03027,0.01733,0.95239,0.95303,-0.00558,-0.00081,-0.00167,0.00589,0.95484,0.00427,0.00589,3,12109,0,26354,0.27136,0.15652,0.57679,100,1,95.580,57,1,3,4294,195192,0,0,0.000,75.976,3.510,0,0.000,188.923,3.906,0,0,1,0,2
PPG,7,365128,14606670587,123,75972,81259,81310.078,-51.078,-161.328,0,0,0,0,60.00,60.00,2,1,0,100.00,0,1,24,1,1,8,8,0,0,0,1724677617,0.02710,0.01855,0.95654,0.95711,-0.00612,-0.00081,-0.00141,0.00633,0.96214,0.00842,0.00633,3,12118,0,26354,0.27136,0.15652,0.57679,100,1,95.580,57,1,3,4294,195192,0,0,0.000,75.976,3.510,0,0.000,188.923,3.906,0,0,1,0,2
PPG,7,365129,14606710587,123,75980,81304,81310.016,-6.016,-129.328,0,0,0,0,60.00,60.00,2,1,0,100.00,0,1,24,1,1,9,9,0,0,0,1724716597,0.02954,0.01733,0.95581,0.95642,-0.00665,-0.00135,-0.00167,0.00699,0.95642,0.00483,0.00699,3,12116,0,26354,0.27136,0.15652,0.57679,100,1,95.580,57,1,3,2601,195192,0,0,0.000,75.976,3.510,0,0.000,188.923,3.906,0,0,1,0,2
PPG,7,365130,14606750587,121,76014,81374,81310.656,63.344,-96.586,0,0,0,0,60.00,60.00,2,1,0,100.00,0,1,24,1,1,10,10,0,0,0,1724758127,0.02783,0.01978,0.95874,0.95935,-0.00558,-0.00135,-0.00221,0.00615,0.95935,0.00545,0.00615,3,12118,0,26354,0.27136,0.15652,0.57679,100,1,95.580,57,1,3,4294,195192,0,0,0.000,75.976,3.510,0,0.000,188.923,3.906,0,0,1,0,2
PPG,7,365131,14606790587,120,76013,81430,81311.852,118.148,-59.898,0,0,0,0,60.00,60.00,2,1,0,100.00,0,1,24,1,1,11,11,0,0,0,1724797076,0.02710,0.01660,0.95166,0.95219,-0.00505,-0.00001,-0.00167,0.00532,0.95808,0.00589,0.00611,3,12137,0,26354,0.27136,0.15652,0.57679,100,1,95.580,57,1,3,2600,195192,0,0,0.000,75.976,3.510,0,0.000,188.923,3.906,0,0,1,0,2
PPG,7,365132,14606830587,121,76030,81444,81313.172,130.828,-23.391,0,0,0,0,60.00,60.00,2,1,0,100.00,0,1,24,1,1,12,12,0,0,0,1724838643,0.02612,0.01978,0.95703,0.95759,-0.00585,-0.00081,-0.00194,0.00622,0.95759,0.00398,0.00663,3,12109,0,26354,0.27136,0.15652,0.57679,100,1,95.580,57,1,3,4296,195192,0,0,0.000,75.976,3.510,0,0.000,188.923,3.906,0,0,1,0,2
PPG,7,365133,14606870587,120,76037,81487,81314.906,172.094,19.977,0,0,0,0,60.00,60.00,2,1,0,100.00,0,1,24,1,1,13,13,0,0,0,1724877608,0.02930,0.02124,0.95605,0.95674,-0.00638,-0.00135,-0.00221,0.00689,0.96125,0.00371,0.00689,3,12124,0,26354,0.27136,0.15652,0.57679,100,1,95.580,57,1,3,4295,195192,0,0,0.000,75.976,3.510,0,0.000,188.923,3.906,0,0,1,0,2
PPG,7,365134,14606910587,131,76045,81515,81316.906,198.094,66.109,0,0,0,0,60.00,60.00,2,1,0,100.00,0,1,24,1,1,14,14,0,0,0,1724954648,0.02759,0.01929,0.95117,0.95177,-0.00558,-0.00055,-0.00274,0.00624,0.95644,0.00467,0.00656,2,62392,0,26359,0.27136,0.15652,0.57679,100,1,95.580,57,1,3,62421,195192,0,0,0.000,75.976,3.510,0,0.000,188.923,3.906,0,0,1,0,2
PPG,7,365135,14606950587,121,76059,81556,81319.297,236.703,111.289,0,0,0,0,60.00,60.00,2,1,0,100.00,0,1,24,1,1,15,15,0,0,0,1724966800,0.03003,0.01367,0.95142,0.95199,-0.00638,-0.00055,-0.00221,0.00678,0.95199,0.00022,0.00678,1,12152,0,26359,0.27136,0.15652,0.57679,100,1,95.580,57,1,3,12087,195192,0,0,0.000,75.976,3.510,0,0.000,188.923,3.906,0,0,1,0,2
PPG,7,365136,14606990587,118,76071,81568,81321.781,246.219,153.203,0,0,0,0,60.00,60.00,2,1,0,100.00,0,1,24,1,1,16,16,0,0,0,1725003234,0.02612,0.01929,0.95068,0.95124,-0.00612,0.00052,-0.00114,0.00624,0.95343,0.00186,0.00653,3,12171,0,26359,0.27136,0.15652,0.57679,100,1,95.580,57,1,3,2598,195192,0,0,0.000,75.976,3.510,0,0.000,188.923,3.906,0,0,1,0,2
PPG,7,365137,14607030587,119,76114,81637,81324.930,312.070,192.719,0,0,0,0,60.00,60.00,2,1,0,100.00,0,1,24,1,1,17,17,0,0,0,1725039583,0.02734,0.01855,0.94971,0.95028,-0.00585,-0.00108,-0.00114,0.00606,0.95543,0.00509,0.00623,3,12118,0,26359,0.27136,0.15652,0.57679,100,1,95.580,57,1,3,4300,195192,0,0,0.000,75.976,3.510,0,0.000,188.923,3.906,0,0,1,0,2
PPG,7,365138,14607070587,119,76097,81688,81328.562,359.438,224.727,0,0,0,0,60.00,60.00,2,1,0,100.00,0,1,24,1,1,18,18,0,0,0,1725078561,0.02905,0.01538,0.95166,0.95223,-0.00558,-0.00028,-0.00114,0.00571,0.95588,0.00549,0.00625,3,12125,0,26359,0.27136,0.15652,0.57679,100,1,95.580,57,1,3,4302,195192,0,0,0.000,75.976,3.510,0,0.000,188.923,3.906,0,0,1,0,2
PPG,7,365139,14607110587,119,76088,81672,81332.000,340.000,237.398,0,0,0,0,60.00,60.00,2,1,0,100.00,0,1,24,1,1,19,19,0,0,0,1725117850,0.03125,0.01782,0.95190,0.95258,-0.00692,0.00052,-0.00141,0.00708,0.95361,0.00138,0.00708,3,12331,0,26359,0.27136,0.15652,0.57679,100,1,95.580,57,1,3,4345,195192,0,0,0.000,75.976,3.510,0,0.000,188.923,3.906,0,0,1,0,2
PPG,7,365140,14607150587,137,76039,81535,81334.031,200.969,220.156,0,0,0,0,60.00,60.00,2,1,0,100.00,0,1,24,1,1,20,20,0,0,0,1725157091,0.03003,0.02124,0.95190,0.95261,-0.00612,-0.00028,-0.00061,0.00615,0.95581,0.00323,0.00708,3,12118,0,26359,0.27136,0.15652,0.57679,100,1,95.580,57,1,3,2673,195192,0,0,0.000,75.976,3.510,0,0.000,188.923,3.906,0,0,1,0,2
PPG,7,365141,14607190587,126,75985,81383,81334.523,48.477,184.148,0,1,0,0,60.00,60.00,2,1,0,100.00,0,1,24,1,1,21,21,0,0,0,1725210847,0.02759,0.01489,0.95654,0.95706,-0.00638,-0.00081,-0.00141,0.00659,0.95783,0.00732,0.00673,3,24245,0,26360,0.27136,0.15652,0.57679,100,1,95.580,57,1,3,14677,195192,0,0,0.000,75.976,3.510,0,0.000,188.923,3.906,0,0,1,0,2
PPG,7,365142,14607230587,122,75984,81377,81334.945,42.055,144.430,0,0,0,0,60.00,60.00,2,1,0,100.00,0,1,24,1,1,22,22,0,0,0,1725235221,0.02832,0.01587,0.95386,0.95441,-0.00479,-0.00055,-0.00167,0.00510,0.95615,0.00174,0.00550,2,12207,0,26360,0.27136,0.15652,0.57679,100,1,95.580,57,1,3,2604,195192,0,0,0.000,75.976,3.510,0,0.000,188.923,3.906,0,0,1,0,2
PPG,7,365143,14607270587,118,76021,81428,81335.875,92.125,110.477,0,0,0,0,60.00,60.00,2,1,0,100.00,0,1,24,1,1,23,23,0,0,0,1725277004,0.02954,0.01978,0.95801,0.95867,-0.00558,0.00052,-0.00167,0.00585,0.95867,0.00540,0.00602,3,12285,0,26360,0.27136,0.15652,0.57679,100,1,95.580,57,1,3,2599,195192,0,0,0.000,75.976,3.510,0,0.000,188.923,3.906,0,0,1,0,2
PPG,7,365144,14607310587,120,76052,81530,81337.812,192.188,77.141,0,0,0,0,60.00,60.00,2,1,0,100.00,0,1,24,1,1,24,24,0,0,0,1725318719,0.02466,0.01782,0.94580,0.94629,-0.00532,0.00079,-0.00141,0.00556,0.95366,0.00858,0.00556,3,12263,0,26360,0.27136,0.15652,0.57679,100,1,95.580,57,1,3,4379,195192,0,0,0.000,75.976,3.510,0,0.000,188.923,3.906,0,0,1,0,2
PPG,7,365145,14607350587,128,76074,81588,81340.312,247.688,43.156,0,0,0,0,60.00,60.00,2,1,0,100.00,0,1,24,1,1,25,25,0,0,0,1725358176,0.02954,0.01587,0.94995,0.95054,-0.00612,-0.00108,-0.00114,0.00632,0.95179,0.00346,0.00632,3,12263,0,26360,0.27136,0.15652,0.57679,100,1,95.580,57,1,3,4344,195192,0,0,0.000,75.976,3.510,0,0.000,188.923,3.906,0,0,1,0,2
PPG,7,365146,14607390587,510,76085,81643,81343.336,299.664,16.258,0,0,0,0,60.00,60.00,2,1,0,100.00,0,1,24,1,1,26,26,0,0,0,1725397590,0.02905,0.01782,0.95386,0.95447,-0.00638,-0.00001,-0.00114,0.00648,0.95883,0.00829,0.00651,3,12247,0,26360,0.28807,0.15939,0.55329,100,1,96.168,71,1,3,4336,195192,0,0,0.000,75.976,3.510,0,0.000,188.923,3.906,0,0,1,0,2
PPG,7,365147,14607430587,200,76087,81638,81346.281,291.719,9.633,1,0,1,840,60.00,60.00,2,1,0,100.00,0,1,24,1,1,27,27,0,0,0,1725437333,0.03101,0.01611,0.95532,0.95596,-0.00532,-0.00001,-0.00087,0.00539,0.95596,0.00395,0.00660,3,12252,0,26360,0.28807,0.15939,0.55329,100,1,96.168,71,1,3,2631,195192,0,0,150.414,75.976,3.510,1,453.641,188.923,3.906,1,1,1,0,3
PPG,7,365148,14607470587,123,76074,81636,81349.180,286.820,26.922,0,0,0,0,60.00,60.00,2,1,0,100.00,0,1,24,1,1,28,28,0,0,0,1725479413,0.02637,0.01465,0.95337,0.95385,-0.00638,-0.00001,-0.00194,0.00667,0.95613,0.00437,0.00667,3,12268,0,26360,0.28807,0.15939,0.55329,100,1,96.168,71,1,3,4351,195192,0,0,0.000,75.435,3.350,0,0.000,187.732,3.762,0,0,1,0,3
PPG,7,365149,14607510587,121,76092,81667,81352.359,314.641,50.203,0,0,0,0,60.00,60.00,2,1,0,100.00,0,1,24,1,1,29,29,0,0,0,1725518762,0.02637,0.02002,0.94702,0.94760,-0.00505,-0.00081,-0.00114,0.00524,0.95487,0.00727,0.00635,3,12300,0,26360,0.28807,0.15939,0.55329,100,1,96.168,71,1,3,4341,195192,0,0,0.000,75.435,3.350,0,0.000,187.732,3.762,0,0,1,0,3
PPG,7,365150,14607550587,130,76100,81684,81355.672,328.328,71.273,0,0,0,0,60.00,60.00,2,1,0,100.00,0,1,24,1,1,30,30,0,0,0,1725558085,0.03296,0.01953,0.95239,0.95316,-0.00585,-0.00135,-0.00141,0.00617,0.95596,0.00521,0.00697,3,12245,0,26360,0.28807,0.15939,0.55329,100,1,96.168,71,1,3,4340,195192,0,0,0.000,75.435,3.350,0,0.000,187.732,3.762,0,0,1,0,3
PPG,7,365151,14607590587,130,76096,81699,81359.102,339.898,81.961,0,0,0,0,60.00,60.00,2,1,0,100.00,0,1,24,1,1,31,31,0,0,0,1725597388,0.03149,0.01611,0.94873,0.94939,-0.00585,0.00025,-0.00141,0.00602,0.95685,0.01267,0.00677,3,12244,0,26360,0.28807,0.15939,0.55329,100,1,96.168,71,1,3,2631,195192,0,0,0.000,75.435,3.350,0,0.000,187.732,3.762,0,0,1,0,3
PPG,7,365152,14607630587,138,76093,81723,81362.742,360.258,87.297,0,0,0,0,60.00,60.00,2,1,0,100.00,0,1,24,1,1,0,0,0,0,0,1725639414,0.02881,0.01782,0.95605,0.95665,-0.00558,0.00052,-0.00141,0.00578,0.95688,0.00681,0.00626,3,12250,0,26360,0.28807,0.15939,0.55329,100,1,96.168,71,1,3,4339,195192,0,0,0.000,71.594,3.563,0,0.000,187.732,3.762,0,0,1,0,3
PPG,7,365153,14607670587,120,76102,81744,81366.555,377.445,88.883,0,0,0,0,60.00,60.00,2,1,0,100.00,0,1,24,1,1,1,1,0,0,0,1725678714,0.02954,0.01758,0.94727,0.94789,-0.00718,0.00025,-0.00167,0.00738,0.95609,0.00729,0.00738,3,12257,0,26360,0.28807,0.15939,0.55329,100,1,96.168,71,1,3,4338,195192,0,0,0.000,71.594,3.563,0,0.000,187.732,3.762,0,0,1,0,3
PPG,7,365154,14607710587,125,76116,81751,81370.398,380.602,93.219,0,0,0,0,60.00,60.00,2,1,0,100.00,0,1,24,1,1,2,2,0,0,0,1725718037,0.02588,0.02100,0.95215,0.95273,-0.00692,-0.00028,-0.00167,0.00712,0.95348,0.00559,0.00712,3,12283,0,26360,0.28807,0.15939,0.55329,100,1,96.168,71,1,3,4361,195192,0,0,0.000,71.594,3.563,0,0.000,187.732,3.762,0,0,1,0,3
PPG,7,365155,14607750587,125,76120,81767,81374.367,392.633,101.391,0,0,0,0,60.00,60.00,2,1,0,100.00,0,1,24,1,1,3,3,0,0,0,1725757315,0.02832,0.01587,0.95581,0.95636,-0.00505,0.00025,-0.00167,0.00533,0.95636,0.00706,0.00628,3,12238,0,26360,0.28807,0.15939,0.55329,100,1,96.168,71,1,3,2637,195192,0,0,0.000,71.594,3.563,0,0.000,187.732,3.762,0,0,1,0,3
PPG,7,365156,14607790587,130,76123,81809,81378.711,430.289,109.617,0,0,0,0,60.00,60.00,2,1,0,100.00,0,1,24,1,1,4,4,0,0,0,1725799173,0.03271,0.01587,0.95605,0.95675,-0.00692,-0.00001,-0.00141,0.00706,0.95950,0.00875,0.00706,3,12208,0,26360,0.28807,0.15939,0.55329,100,1,96.168,71,1,3,4344,195192,0,0,0.000,71.594,3.563,0,0.000,187.732,3.762,0,0,1,0,3
PPG,7,365157,14607830587,121,76142,81846,81383.383,462.617,122.312,0,0,0,0,60.00,60.00,2,1,0,100.00,0,1,24,1,1,5,5,0,0,0,1725838490,0.02832,0.01416,0.95435,0.95487,-0.00665,-0.00001,-0.00221,0.00701,0.95487,0.01066,0.00770,3,12231,0,26360,0.28807,0.15939,0.55329,100,1,96.168,71,1,3,4330,195192,0,0,0.000,71.594,3.563,0,0.000,187.732,3.762,0,0,1,0,3
PPG,7,365158,14607870587,124,76142,81846,81388.008,457.992,135.414,0,0,0,0,60.00,60.00,2,1,0,100.00,0,1,24,1,1,6,6,0,0,0,1725877851,0.02856,0.01807,0.95483,0.95543,-0.00612,0.00025,-0.00141,0.00628,0.95762,0.00562,0.00711,3,12224,0,26360,0.28807,0.15939,0.55329,100,1,96.168,71,1,3,4328,195192,0,0,0.000,71.594,3.563,0,0.000,187.732,3.762,0,0,1,0,3
PPG,7,365159,14607910587,121,76136,81833,81392.461,440.539,143.078,0,0,0,0,60.00,60.00,2,1,0,100.00,0,1,24,1,1,7,7,0,0,0,1725917123,0.03052,0.01587,0.95093,0.95155,-0.00692,0.00105,-0.00141,0.00714,0.95745,0.00590,0.00714,3,12221,0,26360,0.28807,0.15939,0.55329,100,1,96.168,71,1,3,2611,195192,0,0,0.000,71.594,3.563,0,0.000,187.732,3.762,0,0,1,0,3
PPG,7,365160,14607950587,208,76087,81701,81395.547,305.453,128.641,0,0,0,0,60.00,60.00,2,1,0,100.00,0,1,24,1,1,8,8,0,0,0,1725958951,0.03198,0.01611,0.95557,0.95624,-0.00612,-0.00055,-0.00141,0.00630,0.95759,0.00604,0.00655,3,12155,0,26360,0.28807,0.15939,0.55329,100,1,96.168,71,1,3,4310,195192,0,0,0.000,67.333,3.834,0,0.000,184.738,3.835,0,0,1,0,3
PPG,7,365161,14607990587,125,76052,81613,81397.719,215.281,97.422,0,0,0,0,60.00,60.00,2,1,0,100.00,0,1,24,1,1,9,9,0,0,0,1725998149,0.02808,0.01855,0.95874,0.95933,-0.00612,-0.00081,-0.00167,0.00639,0.95933,0.00201,0.00706,3,12110,0,26360,0.28807,0.15939,0.55329,100,1,96.168,71,1,3,4318,195192,0,0,0.000,67.333,3.834,0,0.000,184.738,3.835,0,0,1,0,3
PPG,7,365162,14608030587,122,76039,81597,81399.711,197.289,62.141,0,0,0,0,60.00,60.00,2,1,0,100.00,0,1,24,1,1,10,10,0,0,0,1726037150,0.03003,0.01782,0.96045,0.96108,-0.00638,0.00025,-0.00247,0.00685,0.96108,0.00906,0.00685,3,12131,0,26360,0.28807,0.15939,0.55329,100,1,96.168,71,1,3,2596,195192,0,0,0.000,67.333,3.834,0,0.000,184.738,3.835,0,0,1,0,3
PPG,7,365163,14608070587,120,76025,81568,81401.391,166.609,20.711,0,0,0,0,60.00,60.00,2,1,0,100.00,0,1,24,1,1,11,11,0,0,0,1726078704,0.02832,0.01611,0.95654,0.95710,-0.00638,0.00052,-0.00221,0.00677,0.95710,0.00756,0.00714,3,12124,0,26360,0.28807,0.15939,0.55329,100,1,96.168,71,1,3,4298,195192,0,0,0.000,67.333,3.834,0,0.000,184.738,3.835,0,0,1,0,3
PPG,7,365164,14608110587,121,76010,81548,81402.859,145.141,-22.758,0,0,0,0,60.00,60.00,2,1,0,100.00,0,1,24,1,1,12,12,0,0,0,1726117636,0.02686,0.01416,0.94678,0.94726,-0.00425,-0.00135,-0.00087,0.00454,0.95956,0.01230,0.00591,3,12111,0,26360,0.28807,0.15939,0.55329,100,1,96.168,71,1,3,2609,195192,0,0,0.000,67.333,3.834,0,0.000,184.738,3.835,0,0,1,0,3
PPG,7,365165,14608150587,124,75993,81523,81404.062,118.938,-65.656,0,0,0,0,60.00,60.00,2,1,0,100.00,0,1,24,1,1,13,13,0,0,0,1726159231,0.02856,0.01611,0.95215,0.95271,-0.00692,-0.00135,-0.00221,0.00738,0.95685,0.00624,0.00738,3,12120,0,26360,0.28807,0.15939,0.55329,100,1,96.168,71,1,3,4298,195192,0,0,0.000,67.333,3.834,0,0.000,184.738,3.835,0,0,1,0,3
PPG,7,365166,14608190587,129,75999,81533,81405.352,127.648,-103.008,0,0,0,0,60.00,60.00,2,1,0,100.00,0,1,24,1,1,14,14,0,0,0,1726210195,0.02832,0.01685,0.95703,0.95760,-0.00585,0.00132,-0.00061,0.00603,0.95760,0.00627,0.00703,3,24066,0,26361,0.28807,0.15939,0.55329,100,1,96.168,71,1,3,14479,195192,0,0,0.000,67.333,3.834,0,0.000,184.738,3.835,0,0,1,0,3
PPG,7,365167,14608230587,125,75989,81491,81406.211,84.789,-125.664,0,0,0,0,60.00,60.00,2,1,0,100.00,0,1,24,1,1,15,15,0,0,0,1726234556,0.02783,0.01709,0.94727,0.94783,-0.00692,0.00292,-0.00034,0.00751,0.95047,0.00713,0.00751,2,12200,0,26361,0.28807,0.15939,0.55329,100,1,96.168,71,1,3,2592,195192,0,0,0.000,67.333,3.834,0,0.000,184.738,3.835,0,0,1,0,3
PPG,7,365168,14608270587,123,75987,81449,81406.641,42.359,-139.742,0,0,0,0,60.00,60.00,2,1,0,100.00,0,1,24,1,1,16,16,0,0,0,1726278720,0.02295,0.02075,0.95386,0.95436,-0.00718,0.00292,-0.00167,0.00793,0.96150,0.01367,0.00837,3,12121,0,26361,0.28807,0.15939,0.55329,100,1,96.168,71,1,3,4298,195192,0,0,0.000,67.333,3.834,0,0.000,184.738,3.835,0,0,1,0,3
PPG,7,365169,14608310587,123,75991,81484,81407.414,76.586,-146.742,0,0,0,0,60.00,60.00,2,1,0,100.00,0,1,24,1,1,17,17,0,0,0,1726317670,0.03076,0.01904,0.95361,0.95430,-0.00692,0.00265,-0.00141,0.00754,0.95517,0.00319,0.00770,3,12114,0,26361,0.28807,0.15939,0.55329,100,1,96.168,71,1,3,2600,195192,0,0,0.000,67.333,3.834,0,0.000,184.738,3.835,0,0,1,0,3
PPG,7,365170,14608350587,128,75994,81501,81408.352,92.648,-147.156,0,0,0,0,60.00,60.00,2,1,0,100.00,0,1,24,1,1,18,18,0,0,0,1726359235,0.03101,0.01782,0.95410,0.95477,-0.00558,-0.00028,-0.00114,0.00571,0.95477,0.00408,0.00754,3,12120,0,26361,0.28807,0.15939,0.55329,100,1,96.168,71,1,3,4297,195192,0,0,0.000,67.333,3.834,0,0.000,184.738,3.835,0,0,1,0,3
PPG,7,365171,14608390587,524,75997,81534,81409.609,124.391,-140.906,0,0,0,0,60.00,60.00,2,1,0,100.00,0,1,24,1,1,19,19,0,0,0,1726398181,0.02466,0.01489,0.96338,0.96381,-0.00532,-0.00001,-0.00141,0.00550,0.96381,0.00618,0.00660,3,12119,0,26361,0.29410,0.12616,0.42897,100,1,99.276,68,1,3,4305,195192,0,0,0.000,67.333,3.834,0,0.000,184.738,3.835,0,0,1,0,3
PPG,7,365172,14608430587,175,76004,81570,81411.211,158.789,-126.539,0,0,0,0,60.00,60.00,2,1,0,100.00,0,1,24,1,1,20,20,0,0,0,1726437633,0.02637,0.01514,0.95337,0.95385,-0.00612,-0.00055,-0.00141,0.00630,0.95385,0.01139,0.00630,3,12165,0,26361,0.29410,0.12616,0.42897,100,1,99.276,68,1,3,2598,195192,0,0,0.000,67.333,3.834,0,0.000,184.738,3.835,0,0,1,0,3
PPG,7,365173,14608470587,126,76012,81568,81412.781,155.219,-112.742,0,0,0,0,60.00,60.00,2,1,0,100.00,0,1,24,1,1,21,21,0,0,0,1726479231,0.02832,0.01514,0.95288,0.95342,-0.00638,0.00132,-0.00114,0.00662,0.95551,0.00813,0.00694,3,12120,0,26361,0.29410,0.12616,0.42897,100,1,99.276,68,1,3,4299,195192,0,0,0.000,67.333,3.834,0,0.000,184.738,3.835,0,0,1,0,3
PPG,7,365174,14608510587,128,75981,81515,81413.805,101.195,-97.508,0,0,0,0,60.00,60.00,2,1,0,100.00,0,1,24,1,1,22,22,0,0,0,1726518173,0.02515,0.01733,0.95654,0.95703,-0.00638,-0.00161,-0.00221,0.00694,0.95703,0.00658,0.00694,3,12113,0,26361,0.29410,0.12616,0.42897,100,1,99.276,68,1,3,4302,195192,0,0,0.000,67.333,3.834,0,0.000,184.738,3.835,0,0,1,0,3
PPG,7,365175,14608550587,126,75976,81509,81414.758,94.242,-76.039,0,0,0,0,60.00,60.00,2,1,0,100.00,0,1,24,1,1,23,23,0,0,0,1726557392,0.02686,0.01855,0.95825,0.95881,-0.00585,-0.00135,-0.00167,0.00623,0.95992,0.00580,0.00719,3,12223,0,26361,0.29410,0.12616,0.42897,100,1,99.276,68,1,3,2640,195192,0,0,0.000,67.333,3.834,0,0.000,184.738,3.835,0,0,1,0,3
PPG,7,365176,14608590587,127,75959,81474,81415.352,58.648,-60.719,0,0,0,0,60.00,60.00,2,1,0,100.00,0,1,24,1,1,24,24,0,0,0,1726599168,0.02539,0.01343,0.95581,0.95624,-0.00665,0.00025,-0.00141,0.00680,0.95624,0.00521,0.00680,3,12184,0,26361,0.29410,0.12616,0.42897,100,1,99.276,68,1,3,4299,195192,0,0,0.000,67.333,3.834,0,0.000,184.738,3.835,0,0,1,0,3
PPG,7,365177,14608630587,123,75952,81448,81415.680,32.320,-48.391,0,0,0,0,60.00,60.00,2,1,0,100.00,0,1,24,1,1,25,25,0,0,0,1726638112,0.03052,0.01685,0.95605,0.95669,-0.00612,-0.00108,-0.00114,0.00632,0.95669,0.00840,0.00688,3,12128,0,26361,0.29410,0.12616,0.42897,100,1,99.276,68,1,3,2630,195192,0,0,0.000,67.333,3.834,0,0.000,184.738,3.835,0,0,1,0,3
PPG,7,365178,14608670587,124,75941,81426,81415.781,10.219,-42.820,0,0,0,0,60.00,60.00,2,1,0,100.00,0,1,24,1,1,26,26,0,0,0,1726679838,0.02905,0.01904,0.94922,0.94985,-0.00558,0.00158,-0.00061,0.00584,0.95092,0.00768,0.00584,3,12179,0,26361,0.29410,0.12616,0.42897,100,1,99.276,68,1,3,4295,195192,0,0,0.000,67.333,3.834,0,0.000,184.738,3.835,0,0,1,0,3
PPG,7,365179,14608710587,142,75931,81404,81415.664,-11.664,-45.086,0,0,0,0,60.00,60.00,2,1,0,100.00,0,1,24,1,1,27,27,0,0,0,1726718987,0.02588,0.01733,0.95410,0.95461,-0.00612,0.00079,-0.00141,0.00633,0.95727,0.00677,0.00633,3,12118,0,26361,0.29410,0.12616,0.42897,100,1,99.276,68,1,3,4298,195192,0,0,0.000,65.222,3.984,0,0.000,179.279,3.976,0,0,1,0,3
PPG,7,365180,14608750587,124,75954,81431,81415.820,15.180,-51.156,0,0,0,0,60.00,60.00,2,1,0,100.00,0,1,24,1,1,28,28,0,0,0,1726758399,0.02637,0.01685,0.95215,0.95266,-0.00638,-0.00055,-0.00194,0.00669,0.95751,0.00876,0.00669,3,12240,0,26361,0.29410,0.12616,0.42897,100,1,99.276,68,1,3,4342,195192,0,0,0.000,65.222,3.984,0,0.000,179.279,3.976,0,0,1,0,3
PPG,7,365181,14608790587,123,75980,81457,81416.234,40.766,-51.641,0,0,0,0,60.00,60.00,2,1,0,100.00,0,1,24,1,1,29,29,0,0,0,1726797756,0.02588,0.01855,0.95557,0.95610,-0.00585,-0.00135,-0.00221,0.00640,0.95610,0.00190,0.00684,3,12304,0,26361,0.29410,0.12616,0.42897,100,1,99.276,68,1,3,2644,195192,0,0,0.000,65.222,3.984,0,0.000,179.279,3.976,0,0,1,0,3
PPG,7,365182,14608830587,203,75961,81443,81416.500,26.500,-53.367,0,0,0,0,60.00,60.00,2,1,0,100.00,0,1,24,1,1,30,30,0,0,0,1726839668,0.02515,0.01953,0.96069,0.96122,-0.00665,-0.00081,-0.00221,0.00705,0.96122,0.00920,0.00712,3,12267,0,26361,0.29410,0.12616,0.42897,100,1,99.276,68,1,3,4361,195192,0,0,0.000,65.222,3.984,0,0.000,179.279,3.976,0,0,1,0,3
PPG,7,365183,14608870587,123,75936,81425,81416.586,8.414,-53.219,0,0,0,0,60.00,60.00,2,1,0,100.00,0,1,24,1,1,31,31,0,0,0,1726879191,0.02759,0.01782,0.95435,0.95491,-0.00612,-0.00055,-0.00141,0.00630,0.95491,0.00648,0.00679,3,12274,0,26361,0.29410,0.12616,0.42897,100,1,99.276,68,1,3,4352,195192,0,0,0.000,65.222,3.984,0,0.000,179.279,3.976,0,0,1,0,3
PPG,7,365184,14608910587,124,75938,81421,81416.633,4.367,-50.727,0,0,0,0,60.00,60.00,2,1,0,100.00,0,1,24,1,1,0,0,0,0,0,1726918485,0.03052,0.01929,0.96094,0.96162,-0.00585,0.00052,-0.00114,0.00598,0.96162,0.01231,0.00685,3,12219,0,26361,0.29410,0.12616,0.42897,100,1,99.276,68,1,3,4340,195192,0,0,0.000,65.222,3.984,0,0.000,179.279,3.976,0,0,1,0,3
PPG,7,365185,14608950587,123,75928,81412,81416.586,-4.586,-47.180,0,0,0,0,60.00,60.00,2,1,0,100.00,0,1,24,1,1,1,1,0,0,0,1726957862,0.02759,0.01831,0.95044,0.95102,-0.00612,-0.00081,-0.00141,0.00633,0.95382,0.00780,0.00695,3,12298,0,26361,0.29410,0.12616,0.42897,100,1,99.276,68,1,3,2633,195192,0,0,0.000,65.222,3.984,0,0.000,179.279,3.976,0,0,1,0,3
PPG,7,365186,14608990587,124,75899,81369,81416.109,-47.109,-43.977,0,0,0,0,60.00,60.00,2,1,0,100.00,0,1,24,1,1,2,2,0,0,0,1726999760,0.02271,0.01807,0.95264,0.95308,-0.00452,-0.00028,-0.00274,0.00529,0.95489,0.00666,0.00651,3,12228,0,26361,0.29410,0.12616,0.42897,100,1,99.276,68,1,3,4315,195192,0,0,0.000,65.222,3.984,0,0.000,179.279,3.976,0,0,1,0,3
PPG,7,365187,14609030587,162,75893,81355,81415.500,-60.500,-48.039,0,0,0,0,60.00,60.00,2,1,0,100.00,0,1,24,1,1,3,3,0,0,0,1727039065,0.02441,0.01611,0.95581,0.95626,-0.00532,-0.00001,-0.00247,0.00586,0.95657,0.00849,0.00662,3,12259,0,26361,0.29410,0.12616,0.42897,100,1,99.276,68,1,3,4339,195192,0,0,0.000,60.761,4.344,0,0.000,165.345,4.389,0,0,1,0,3
PPG,7,365188,14609070587,123,75903,81368,81415.023,-47.023,-56.703,0,0,0,0,60.00,60.00,2,1,0,100.00,0,1,24,1,1,4,4,0,0,0,1727078403,0.02686,0.01562,0.94678,0.94729,-0.00558,-0.00028,-0.00167,0.00584,0.95684,0.00955,0.00668,3,12196,0,26361,0.29410,0.12616,0.42897,100,1,99.276,68,1,3,4333,195192,0,0,0.000,60.761,4.344,0,0.000,165.345,4.389,0,0,1,0,3
PPG,7,365189,14609110587,125,75925,81399,81414.859,-15.859,-58.742,0,0,0,0,60.00,60.00,2,1,0,100.00,0,1,24,1,1,5,5,0,0,0,1727117731,0.02881,0.01685,0.95361,0.95420,-0.00532,0.00025,-0.00221,0.00576,0.95466,0.00457,0.00675,3,12234,0,26361,0.29410,0.12616,0.42897,100,1,99.276,68,1,3,2629,195192,0,0,0.000,60.761,4.344,0,0.000,165.345,4.389,0,0,1,0,3
PPG,7,365190,14609150587,124,75939,81445,81415.164,29.836,-53.078,0,0,0,0,60.00,60.00,2,1,0,100.00,0,1,24,1,1,6,6,0,0,0,1727159770,0.02759,0.01660,0.94775,0.94830,-0.00612,-0.00028,-0.00221,0.00651,0.95363,0.00533,0.00651,3,12362,0,26361,0.29410,0.12616,0.42897,100,1,99.276,68,1,3,4335,195192,0,0,0.000,60.761,4.344,0,0.000,165.345,4.389,0,0,1,0,3
PPG,7,365191,14609190587,169,75971,81500,81416.016,83.984,-40.094,0,0,0,0,60.00,60.00,2,1,0,100.00,0,1,24,1,1,7,7,0,0,0,1727211132,0.02661,0.02173,0.94849,0.94911,-0.00638,0.00025,-0.00141,0.00654,0.95375,0.00545,0.00677,3,24304,0,26362,0.29410,0.12616,0.42897,100,1,99.276,68,1,3,14637,195192,0,0,0.000,60.761,4.344,0,0.000,165.345,4.389,0,0,1,0,3
PPG,7,365192,14609230587,130,75991,81552,81417.375,134.625,-19.188,0,0,0,0,60.00,60.00,2,1,0,100.00,0,1,24,1,1,8,8,0,0,0,1727235694,0.02734,0.01733,0.95483,0.95538,-0.00585,-0.00135,-0.00300,0.00671,0.95652,0.00741,0.00671,2,12282,0,26362,0.29410,0.12616,0.42897,100,1,99.276,68,1,3,2622,195192,0,0,0.000,60.761,4.344,0,0.000,165.345,4.389,0,0,1,0,3
PPG,7,365193,14609270587,123,76005,81571,81418.914,152.086,9.508,0,0,0,0,60.00,60.00,2,1,0,100.00,0,1,24,1,1,9,9,0,0,0,1727280303,0.03003,0.01953,0.95239,0.95307,-0.00532,-0.00108,-0.00141,0.00561,0.96005,0.00698,0.00607,3,12235,0,26363,0.29410,0.12616,0.42897,100,1,99.276,68,1,3,4329,195192,0,0,0.000,60.761,4.344,0,0.000,165.345,4.389,0,0,1,0,3
PPG,7,365194,14609310587,123,76011,81584,81420.562,163.438,38.781,0,0,0,0,60.00,60.00,2,1,0,100.00,0,1,24,1,1,10,10,0,0,0,1727319550,0.02588,0.01978,0.95508,0.95563,-0.00638,-0.00001,-0.00194,0.00667,0.95563,0.00553,0.00667,3,12233,0,26363,0.29410,0.12616,0.42897,100,1,99.276,68,1,3,4336,195192,0,0,0.000,60.761,4.344,0,0.000,165.345,4.389,0,0,1,0,3
PPG,7,365195,14609350587,121,76033,81594,81422.297,171.703,66.812,0,0,0,0,60.00,60.00,2,1,0,100.00,0,1,24,1,1,11,11,0,0,0,1727358909,0.02515,0.01514,0.95264,0.95309,-0.00585,0.00105,-0.00167,0.00618,0.95309,0.00928,0.00667,3,12236,0,26363,0.29410,0.12616,0.42897,100,1,99.276,68,1,3,4317,195192,0,0,0.000,60.761,4.344,0,0.000,165.345,4.389,0,0,1,0,3
PPG,7,365196,14609390587,511,76024,81629,81424.367,204.633,91.922,0,0,0,0,60.00,60.00,2,1,0,100.00,0,1,24,1,1,12,12,0,0,0,1727398091,0.02148,0.01685,0.95947,0.95986,-0.00665,0.00079,-0.00221,0.00705,0.95986,0.00534,0.00705,3,12121,0,26363,0.24555,0.08777,0.35745,99,1,101.064,68,1,3,2599,195192,0,0,0.000,60.761,4.344,0,0.000,165.345,4.389,0,0,1,0,3
PPG,7,365197,14609430587,169,76044,81670,81426.820,243.180,112.961,0,0,0,0,60.00,60.00,2,1,0,100.00,0,1,24,1,1,13,13,0,0,0,1727440075,0.02686,0.01831,0.95752,0.95807,-0.00638,-0.00055,-0.00061,0.00644,0.95807,0.01057,0.00644,3,12116,0,26363,0.24555,0.08777,0.35745,99,1,101.064,68,1,3,4299,195192,0,0,0.000,60.761,4.344,0,0.000,165.345,4.389,0,0,1,0,3
PPG,7,365198,14609470587,148,76048,81648,81429.031,218.969,123.008,0,0,0,0,60.00,60.00,2,1,0,100.00,0,1,24,1,1,14,14,0,0,0,1727479165,0.02686,0.01733,0.95996,0.96049,-0.00612,-0.00028,-0.00194,0.00642,0.96049,0.01175,0.00642,3,12132,0,26363,0.24555,0.08777,0.35745,99,1,101.064,68,1,3,4298,195192,0,0,0.000,60.761,4.344,0,0.000,165.345,4.389,0,0,1,0,3
PPG,7,365199,14609510587,140,76005,81597,81430.711,166.289,119.789,0,0,0,0,60.00,60.00,2,1,0,100.00,0,1,24,1,1,15,15,0,0,0,1727518125,0.02588,0.01855,0.94946,0.95000,-0.00638,0.00105,-0.00114,0.00657,0.95868,0.00869,0.00660,3,12113,0,26363,0.24555,0.08777,0.35745,99,1,101.064,68,1,3,2597,195192,0,0,0.000,60.761,4.344,0,0.000,165.345,4.389,0,0,1,0,3
PPG,7,365200,14609550587,121,75982,81512,81431.523,80.477,107.312,0,0,0,0,60.00,60.00,2,1,0,100.00,0,1,24,1,1,16,16,0,0,0,1727559781,0.02856,0.02075,0.97510,0.97574,-0.00558,-0.00081,-0.00300,0.00639,0.97574,0.04492,0.00639,3,12174,0,26363,0.24555,0.08777,0.35745,99,1,101.064,68,1,3,4307,195192,0,0,0.000,60.761,4.344,0,0.000,165.345,4.389,0,0,1,0,3
PPG,7,365201,14609590587,122,75976,81488,81432.086,55.914,92.039,0,0,0,0,60.00,60.00,2,1,0,100.00,0,1,24,1,1,17,17,0,0,0,1727598849,0.02905,0.01587,0.95166,0.95224,-0.00612,-0.00028,-0.00061,0.00615,0.96066,0.01862,0.00642,3,12110,0,26363,0.24555,0.08777,0.35745,99,1,101.064,68,1,3,4298,195192,0,0,0.000,60.761,4.344,0,0.000,165.345,4.389,0,0,1,0,3
PPG,7,365202,14609630587,124,75974,81459,81432.352,26.648,71.961,0,1,0,0,60.00,60.00,2,1,0,100.00,0,1,24,1,1,18,18,0,0,0,1727637843,0.02832,0.01758,0.95972,0.96030,-0.00585,-0.00055,-0.00087,0.00594,0.96030,0.00754,0.00594,3,12117,0,26363,0.24555,0.08777,0.35745,99,1,101.064,68,1,3,2601,195192,0,0,0.000,60.761,4.344,0,0.000,165.345,4.389,0,0,1,0,3
PPG,7,365203,14609670587,120,75960,81459,81432.617,26.383,45.969,0,0,0,0,60.00,60.00,2,1,0,100.00,0,1,24,1,1,19,19,0,0,0,1727679443,0.02734,0.01758,0.96021,0.96076,-0.00585,-0.00028,-0.00141,0.00602,0.96076,0.01233,0.00620,3,12110,0,26363,0.24555,0.08777,0.35745,99,1,101.064,68,1,3,4302,195192,0,0,0.000,60.761,4.344,0,0.000,165.345,4.389,0,0,1,0,3
PPG,7,365204,14609710587,121,75954,81460,81432.891,27.109,14.023,0,0,0,0,60.00,60.00,2,1,0,100.00,0,1,24,1,1,20,20,0,0,0,1727718390,0.02856,0.01733,0.94189,0.94249,-0.00532,0.00105,-0.00167,0.00567,0.95938,0.01310,0.00571,3,12124,0,26363,0.24555,0.08777,0.35745,99,1,101.064,68,1,3,2597,195192,0,0,0.000,60.761,4.344,0,0.000,165.345,4.389,0,0,1,0,3
PPG,7,365205,14609750587,120,75931,81442,81432.984,9.016,-16.906,0,0,0,0,60.00,60.00,2,1,0,100.00,0,1,24,1,1,21,21,0,0,0,1727759934,0.02832,0.01831,0.95386,0.95445,-0.00692,-0.00001,-0.00221,0.00726,0.95854,0.01075,0.00726,3,12120,0,26363,0.24555,0.08777,0.35745,99,1,101.064,68,1,3,4331,195192,0,0,0.000,60.761,4.344,0,0.000,165.345,4.389,0,0,1,0,3
PPG,7,365206,14609790587,134,75924,81438,81433.031,4.969,-43.070,1,0,1,0,0.00,nan,1,2,0,100.00,0,1,24,1,1,22,22,0,0,0,1727798925,0.02856,0.01562,0.94922,0.94978,-0.00505,-0.00081,-0.00194,0.00547,0.95688,0.00901,0.00653,3,12117,0,26363,0.24555,0.08777,0.35745,99,1,101.064,68,1,3,4309,195192,0,0,92.359,60.761,4.344,1,181.750,165.345,4.389,1,1,1,0,1
PPG,7,365207,14609830587,116,75917,81396,81432.664,-36.664,-61.688,0,0,0,0,0.00,nan,1,2,0,100.00,0,1,24,1,1,23,23,0,0,0,1727837973,0.02734,0.01636,0.94946,0.95000,-0.00585,-0.00028,-0.00167,0.00609,0.95745,0.00746,0.00671,3,12125,0,26363,0.24555,0.08777,0.35745,99,1,101.064,68,1,3,2601,195192,0,0,0.000,59.925,4.023,0,0.000,162.603,4.001,0,0,1,0,1
PPG,7,365208,14609870587,116,75934,81385,81432.188,-47.188,-77.258,0,0,0,0,0.00,nan,1,2,0,100.00,0,1,24,1,1,24,24,0,0,0,1727879636,0.03125,0.01807,0.94434,0.94503,-0.00505,-0.00001,-0.00221,0.00551,0.95557,0.01054,0.00703,3,12166,0,26363,0.24555,0.08777,0.35745,99,1,101.064,68,1,3,4298,195192,0,0,0.000,59.925,4.023,0,0.000,162.603,4.001,0,0,1,0,1
PPG,7,365209,14609910587,119,75921,81361,81431.477,-70.477,-89.359,0,0,0,0,0.00,nan,1,2,0,100.00,0,1,24,1,1,25,25,0,0,0,1727918614,0.03052,0.01538,0.95679,0.95740,-0.00585,-0.00028,-0.00114,0.00597,0.95740,0.00696,0.00597,3,12110,0,26363,0.24555,0.08777,0.35745,99,1,101.064,68,1,3,2597,195192,0,0,0.000,59.925,4.023,0,0.000,162.603,4.001,0,0,1,0,1
PPG,7,365210,14609950587,166,75915,81391,81431.070,-40.070,-96.367,0,0,0,0,0.00,nan,1,2,0,100.00,0,1,24,1,1,26,26,0,0,0,1727960114,0.03198,0.02393,0.94214,0.94298,-0.00558,-0.00108,-0.00167,0.00593,0.95368,0.00972,0.00660,3,12111,0,26363,0.24555,0.08777,0.35745,99,1,101.064,68,1,3,4295,195192,0,0,0.000,59.925,4.023,0,0.000,162.603,4.001,0,0,1,0,1
