type,session_id,sample_index,sample_time_us,processing_time_us,red_raw,ir_raw,ir_dc,ir_ac,ir_filtered,peak_custom,peak_sparkfun,peak_accepted,ibi_ms,bpm_instant,bpm_robust,hr_status,ppg_quality,ppg_quality_flags,spo2_result,spo2_status,spo2_quality,led_amplitude,sparkfun_check_count,sparkfun_available,hw_fifo_read_ptr,hw_fifo_write_ptr,hw_fifo_overflow,suspected_drops,missing_samples,mpu_time_us,ax_g,ay_g,az_g,acc_mag_g,gx_rad_s,gy_rad_s,gz_rad_s,gyro_mag_rad_s,mpu_window_peak_g,mpu_window_delta_g,mpu_window_gyro_rad_s,mpu_window_samples,mpu_dt_us,mpu_saturated,mpu_missed_deadlines,ppg_mod_ir_pct,ppg_mod_red_pct,ppg_ratio_r,spo2_maxim,spo2_maxim_valid,spo2_custom_candidate,maxim_hr,maxim_hr_valid,measurement_state,loop_last_us,loop_max_us,display_render_us,i2c_failures,red_prominence,red_threshold,red_snr,red_candidate,ir_prominence,ir_threshold,ir_snr,ir_candidate,peak_fused,detector_state,quarantine_remaining_ms,synchronized_count
PPG,4,357857,14315830587,124,74771,79153,77646.219,1506.781,114.156,0,0,0,0,85.71,85.71,2,1,0,nan,4,1,24,1,1,1,1,0,0,0,1433736648,0.04297,0.00391,0.95337,0.95434,-0.00638,0.00079,-0.00300,0.00710,0.95524,0.00245,0.00710,3,12114,0,25919,0.88893,0.67222,0.75622,93,1,91.095,100,1,3,4302,195192,0,0,0.000,12.901,54.085,0,0.000,26.029,18.509,0,0,1,0,2
PPG,4,357858,14315870587,121,74752,79192,77661.680,1530.320,112.070,0,0,0,0,85.71,85.71,2,1,0,nan,4,1,24,1,1,2,2,0,0,0,1433775890,0.04663,0.00439,0.95532,0.95647,-0.00532,0.00079,-0.00114,0.00550,0.95647,0.00914,0.00671,3,12365,0,25919,0.88893,0.67222,0.75622,93,1,91.095,100,1,3,2657,195192,0,0,0.000,12.901,54.085,0,0.000,26.029,18.509,0,0,1,0,2
PPG,4,357859,14315910587,119,74762,79182,77676.883,1505.117,108.039,0,0,0,0,85.71,85.71,2,1,0,nan,4,1,24,1,1,3,3,0,0,0,1433817686,0.03906,0.00537,0.95605,0.95687,-0.00612,0.00132,-0.00087,0.00632,0.95687,0.00478,0.00632,3,12169,0,25919,0.88893,0.67222,0.75622,93,1,91.095,100,1,3,4294,195192,0,0,0.000,12.901,54.085,0,0.000,26.029,18.509,0,0,1,0,2
PPG,4,357860,14315950587,121,74746,79179,77691.906,1487.094,99.094,0,0,0,0,85.71,85.71,2,1,0,nan,4,1,24,1,1,4,4,0,0,0,1433856608,0.05029,0.00537,0.95020,0.95154,-0.00612,0.00025,-0.00087,0.00618,0.95154,0.00702,0.00618,3,12109,0,25919,0.88893,0.67222,0.75622,93,1,91.095,100,1,3,4302,195192,0,0,0.000,12.901,54.085,0,0.000,26.029,18.509,0,0,1,0,2
PPG,4,357861,14315990587,126,74746,79171,77706.695,1464.305,88.438,0,0,0,0,85.71,85.71,2,1,0,nan,4,1,24,1,1,5,5,0,0,0,1433895955,0.04077,0.00024,0.95117,0.95205,-0.00585,0.00052,-0.00141,0.00604,0.95759,0.00605,0.00604,2,24597,0,25920,0.88893,0.67222,0.75622,93,1,91.095,100,1,3,2594,195192,0,0,0.000,12.901,54.085,0,0.000,26.029,18.509,0,0,1,0,2
PPG,4,357862,14316030587,126,74776,79214,77721.766,1492.234,84.078,0,0,0,0,85.71,85.71,2,1,0,nan,4,1,24,1,1,6,6,0,0,0,1433937780,0.04468,0.00122,0.95972,0.96076,-0.00532,-0.00135,-0.00141,0.00566,0.96076,0.00993,0.00649,3,12203,0,25920,0.88893,0.67222,0.75622,93,1,91.095,100,1,3,4303,195192,0,0,0.000,12.901,54.085,0,0.000,26.029,18.509,0,0,1,0,2
PPG,4,357863,14316070587,122,74834,79283,77737.375,1545.625,85.688,0,0,0,0,85.71,85.71,2,1,0,nan,4,1,24,1,1,7,7,0,0,0,1433976799,0.04370,0.00220,0.95337,0.95437,-0.00532,-0.00081,-0.00087,0.00545,0.95940,0.00448,0.00601,3,12150,0,25920,0.88893,0.67222,0.75622,93,1,91.095,100,1,3,4309,195192,0,0,20.469,12.901,54.085,1,0.000,26.029,18.509,0,0,1,0,2
PPG,4,357864,14316110587,123,74816,79255,77752.555,1502.445,86.008,0,0,0,0,85.71,85.71,2,1,0,nan,4,1,24,1,1,8,8,0,0,0,1434015947,0.03857,0.00366,0.95264,0.95342,-0.00665,0.00132,-0.00247,0.00722,0.95358,0.00121,0.00722,3,12126,0,25920,0.88893,0.67222,0.75622,93,1,91.095,100,1,3,2600,195192,0,0,0.000,12.901,54.085,0,0.000,26.029,18.509,0,0,1,0,2
PPG,4,357865,14316150587,126,74772,79167,77766.695,1400.305,72.836,0,0,0,0,85.71,85.71,2,1,0,nan,4,1,24,1,1,9,9,0,0,0,1434057546,0.04272,0.00562,0.95581,0.95678,-0.00558,-0.00001,-0.00167,0.00583,0.95678,0.00602,0.00649,3,12126,0,25920,0.88893,0.67222,0.75622,93,1,91.095,100,1,3,4301,195192,0,0,0.000,12.901,54.085,0,0.000,25.962,18.604,0,0,1,0,2
PPG,4,357866,14316190587,122,74724,79039,77779.422,1259.578,49.156,0,0,0,0,85.71,85.71,2,1,0,nan,4,1,24,1,1,10,10,0,0,0,1434096589,0.04077,0.00293,0.95166,0.95254,-0.00638,-0.00081,-0.00167,0.00665,0.95723,0.00348,0.00665,3,12118,0,25920,0.88893,0.67222,0.75622,93,1,91.095,100,1,3,4299,195192,0,0,0.000,12.901,54.085,0,0.000,25.962,18.604,0,0,1,0,2
PPG,4,357867,14316230587,129,74698,79004,77791.664,1212.336,22.008,0,0,0,0,85.71,85.71,2,1,0,nan,4,1,24,1,1,11,11,0,0,0,1434135550,0.04492,0.00244,0.94897,0.95004,-0.00638,-0.00135,-0.00141,0.00667,0.95821,0.00817,0.00667,3,12129,0,25920,0.88893,0.67222,0.75622,93,1,91.095,100,1,3,2595,195192,0,0,0.000,12.901,54.085,0,0.000,25.962,18.604,0,0,1,0,2
PPG,4,357868,14316270587,127,74694,79016,77803.906,1212.094,-1.641,0,0,0,0,85.71,85.71,2,1,0,nan,4,1,24,1,1,12,12,0,0,0,1434177153,0.04468,0.00439,0.95435,0.95540,-0.00558,-0.00081,-0.00114,0.00576,0.95782,0.00993,0.00699,3,12157,0,25920,0.88893,0.67222,0.75622,93,1,91.095,100,1,3,4298,195192,0,0,0.000,12.901,54.085,0,0.000,25.962,18.604,0,0,1,0,2
PPG,4,357869,14316310587,121,74650,79007,77815.938,1191.062,-30.359,0,0,0,0,85.71,85.71,2,1,0,nan,4,1,24,1,1,13,13,0,0,0,1434216111,0.03979,0.00171,0.95557,0.95640,-0.00558,0.00052,-0.00194,0.00593,0.95640,0.00930,0.00593,3,12133,0,25920,0.88893,0.67222,0.75622,93,1,91.095,100,1,3,2599,195192,0,0,0.000,12.901,54.085,0,0.000,25.962,18.604,0,0,1,0,2
PPG,4,357870,14316350587,121,74659,79039,77828.172,1210.828,-62.812,0,0,0,0,85.71,85.71,2,1,0,nan,4,1,24,1,1,14,14,0,0,0,1434257756,0.04712,0.00488,0.94849,0.94967,-0.00532,0.00158,-0.00247,0.00607,0.95203,0.00593,0.00686,3,12123,0,25920,0.88893,0.67222,0.75622,93,1,91.095,100,1,3,4297,195192,0,0,0.000,12.901,54.085,0,0.000,25.962,18.604,0,0,1,0,2
PPG,4,357871,14316390587,503,74656,79050,77840.391,1209.609,-89.797,0,0,0,0,85.71,85.71,2,1,0,nan,4,1,24,1,1,15,15,0,0,0,1434296834,0.04028,0.00757,0.95361,0.95449,-0.00745,0.00052,-0.00221,0.00779,0.95800,0.00687,0.00779,3,12131,0,25920,1.02693,0.78355,0.76300,19,1,90.925,214,1,3,4311,195192,0,0,0.000,12.901,54.085,0,0.000,25.962,18.604,0,0,1,0,2
PPG,4,357872,14316430587,176,74620,79005,77852.039,1152.961,-107.789,0,0,0,0,85.71,85.71,2,1,0,nan,4,1,24,1,1,16,16,0,0,0,1434336536,0.04419,0.00342,0.95435,0.95537,-0.00585,-0.00055,-0.00247,0.00638,0.95783,0.00334,0.00721,3,12317,0,25920,1.02693,0.78355,0.76300,19,1,90.925,214,1,3,4322,195192,0,0,0.000,12.901,54.085,0,0.000,25.962,18.604,0,0,1,0,2
PPG,4,357873,14316470587,119,74630,79000,77863.516,1136.484,-105.461,0,0,0,0,85.71,85.71,2,1,0,nan,4,1,24,1,1,17,17,0,0,0,1434375925,0.04126,0.00513,0.94824,0.94915,-0.00585,0.00052,-0.00007,0.00587,0.96039,0.00737,0.00587,3,12265,0,25920,1.02693,0.78355,0.76300,19,1,90.925,214,1,3,2628,195192,0,0,0.000,12.901,54.085,0,0.000,25.962,18.604,0,0,1,0,2
PPG,4,357874,14316510587,139,74656,79066,77875.539,1190.461,-91.062,0,0,0,0,85.71,85.71,2,1,0,nan,4,1,24,1,1,18,18,0,0,0,1434417862,0.04297,0.00586,0.95557,0.95655,-0.00532,-0.00028,-0.00141,0.00551,0.95799,0.00883,0.00765,3,12208,0,25920,1.02693,0.78355,0.76300,19,1,90.925,214,1,3,4329,195192,0,0,0.000,12.901,54.085,0,0.000,25.962,18.604,0,0,1,0,2
PPG,4,357875,14316550587,141,74673,79083,77887.617,1195.383,-77.789,0,0,0,0,85.71,85.71,2,1,0,nan,4,1,24,1,1,19,19,0,0,0,1434457298,0.04150,0.00195,0.95776,0.95866,-0.00585,0.00052,-0.00247,0.00637,0.95866,0.00497,0.00644,3,12260,0,25920,1.02693,0.78355,0.76300,19,1,90.925,214,1,3,4340,195192,0,0,0.000,12.901,54.085,0,0.000,25.962,18.604,0,0,1,0,2
PPG,4,357876,14316590587,120,74678,79132,77900.062,1231.938,-58.281,0,0,0,0,85.71,85.71,2,1,0,nan,4,1,24,1,1,20,20,0,0,0,1434496741,0.04175,0.00610,0.95703,0.95796,-0.00585,-0.00055,-0.00114,0.00599,0.95796,0.00554,0.00616,3,12242,0,25920,1.02693,0.78355,0.76300,19,1,90.925,214,1,3,4314,195192,0,0,0.000,12.901,54.085,0,0.000,25.962,18.604,0,0,1,0,2
PPG,4,357877,14316630587,122,74719,79166,77912.719,1253.281,-40.789,0,0,0,0,85.71,85.71,2,1,0,nan,4,1,24,1,1,21,21,0,0,0,1434536084,0.04224,0.00537,0.94995,0.95090,-0.00745,-0.00081,-0.00167,0.00768,0.95699,0.00687,0.00768,3,12235,0,25920,1.02693,0.78355,0.76300,19,1,90.925,214,1,3,2626,195192,0,0,0.000,12.901,54.085,0,0.000,25.962,18.604,0,0,1,0,2
PPG,4,357878,14316670587,148,74713,79174,77925.328,1248.672,-22.172,0,0,0,0,85.71,85.71,2,1,0,nan,4,1,24,1,1,22,22,0,0,0,1434578043,0.04053,0.00317,0.95068,0.95155,-0.00612,-0.00028,-0.00114,0.00623,0.95155,0.00072,0.00647,3,12253,0,25920,1.02693,0.78355,0.76300,19,1,90.925,214,1,3,4318,195192,0,0,0.000,12.901,54.085,0,0.000,25.962,18.604,0,0,1,0,2
PPG,4,357879,14316710587,120,74710,79166,77937.734,1228.266,1.633,0,0,0,0,85.71,85.71,2,1,0,nan,4,1,24,1,1,23,23,0,0,0,1434617377,0.04028,0.00635,0.95459,0.95546,-0.00638,-0.00001,-0.00141,0.00654,0.96133,0.00587,0.00704,3,12254,0,25920,1.02693,0.78355,0.76300,19,1,90.925,214,1,3,4337,195192,0,0,0.000,12.901,54.085,0,0.000,25.962,18.604,0,0,1,0,2
PPG,4,357880,14316750587,121,74734,79216,77950.516,1265.484,30.641,0,0,0,0,85.71,85.71,2,1,0,nan,4,1,24,1,1,24,24,0,0,0,1434656699,0.04395,0.00415,0.95410,0.95512,-0.00585,-0.00081,-0.00114,0.00602,0.95512,0.00469,0.00728,3,12251,0,25920,1.02693,0.78355,0.76300,19,1,90.925,214,1,3,4317,195192,0,0,0.000,12.901,54.085,0,0.000,25.962,18.604,0,0,1,0,2
PPG,4,357881,14316790587,121,74776,79271,77963.719,1307.281,54.922,0,0,0,0,85.71,85.71,2,1,0,nan,4,1,24,1,1,25,25,0,0,0,1434695970,0.04321,0.00610,0.95093,0.95193,-0.00558,0.00052,-0.00167,0.00585,0.95885,0.00594,0.00628,3,12233,0,25920,1.02693,0.78355,0.76300,19,1,90.925,214,1,3,2619,195192,0,0,0.000,12.901,54.085,0,0.000,25.962,18.604,0,0,1,0,2
PPG,4,357882,14316830587,121,74767,79220,77976.281,1243.719,74.188,0,0,0,0,85.71,85.71,2,1,0,nan,4,1,24,1,1,26,26,0,0,0,1434737837,0.04419,0.00513,0.95313,0.95416,-0.00532,-0.00001,-0.00114,0.00544,0.95584,0.00391,0.00544,3,12220,0,25920,1.02693,0.78355,0.76300,19,1,90.925,214,1,3,4332,195192,0,0,0.000,12.901,54.085,0,0.000,25.962,18.604,0,0,1,0,2
PPG,4,357883,14316870587,129,74763,79164,77988.156,1175.844,84.711,0,0,0,0,85.71,85.71,2,1,0,nan,4,1,24,1,1,27,27,0,0,0,1434777183,0.04028,0.00220,0.95435,0.95520,-0.00612,-0.00161,-0.00087,0.00639,0.95927,0.00663,0.00639,3,12255,0,25920,1.02693,0.78355,0.76300,19,1,90.925,214,1,3,4354,195192,0,0,0.000,12.901,54.085,0,0.000,25.962,18.604,0,0,1,0,2
PPG,4,357884,14316910587,133,74753,79158,77999.852,1158.148,88.422,0,0,0,0,85.71,85.71,2,1,0,nan,4,1,24,1,1,28,28,0,0,0,1434855463,0.04761,0.00513,0.94995,0.95116,-0.00585,-0.00161,-0.00114,0.00618,0.95258,0.00262,0.00643,2,63524,0,25925,1.02693,0.78355,0.76300,19,1,90.925,214,1,3,59054,195192,0,0,0.000,12.901,54.085,0,0.000,25.962,18.604,0,0,1,0,2
PPG,4,357885,14316950587,134,74742,79152,78011.375,1140.625,86.031,0,0,0,0,85.71,85.71,2,1,0,nan,4,1,24,1,1,29,29,0,0,0,1434867679,0.04175,0.00562,0.95264,0.95357,-0.00665,-0.00135,-0.00221,0.00713,0.95357,0.00241,0.00713,1,12216,0,25925,1.02693,0.78355,0.76300,19,1,90.925,214,1,3,12142,195192,0,0,0.000,12.901,54.085,0,0.000,25.962,18.604,0,0,1,0,2
PPG,4,357886,14316990587,131,74634,79076,78022.023,1053.977,71.320,0,0,0,0,85.71,85.71,2,1,0,nan,4,1,24,1,1,30,30,0,0,0,1434896459,0.03784,0.00024,0.95483,0.95558,-0.00558,-0.00108,-0.00141,0.00586,0.95558,0.00389,0.00615,2,16613,0,25925,1.02693,0.78355,0.76300,19,1,90.925,214,1,3,4425,195192,0,0,0.000,12.901,54.085,0,0.000,25.962,18.604,0,0,1,0,2
PPG,4,357887,14317030587,123,74592,79031,78032.109,998.891,43.539,0,0,0,0,85.71,85.71,2,1,0,nan,4,1,24,1,1,31,31,0,0,0,1434935819,0.04858,0.00220,0.95435,0.95558,-0.00825,-0.00428,-0.00061,0.00931,0.95558,0.00408,0.00931,3,12241,0,25925,1.02693,0.78355,0.76300,19,1,90.925,214,1,3,2602,195192,0,0,0.000,12.901,54.085,0,0.000,25.962,18.604,0,0,1,0,2
PPG,4,357888,14317070587,147,74618,79070,78042.484,1027.516,12.133,0,0,0,0,85.71,85.71,2,1,0,nan,4,1,24,1,1,0,0,0,0,0,1434977434,0.04053,0.00342,0.95630,0.95716,-0.00532,-0.00188,-0.00141,0.00581,0.95716,0.00621,0.00713,3,12123,0,25925,1.02693,0.78355,0.76300,19,1,90.925,214,1,3,4308,195192,0,0,0.000,12.901,54.085,0,0.000,25.962,18.604,0,0,1,0,2
PPG,4,357889,14317110587,120,74602,79068,78052.742,1015.258,-12.641,0,0,0,0,85.71,85.71,2,1,0,nan,4,1,24,1,1,1,1,0,0,0,1435016557,0.04370,-0.00024,0.95776,0.95876,-0.00558,-0.00001,-0.00221,0.00600,0.95876,0.00929,0.00608,3,12120,0,25925,1.02693,0.78355,0.76300,19,1,90.925,214,1,3,4307,195192,0,0,0.000,12.901,54.085,0,0.000,25.962,18.604,0,0,1,0,2
PPG,4,357890,14317150587,125,74660,79142,78063.633,1078.367,-20.930,0,0,0,0,85.71,85.71,2,1,0,nan,4,1,24,1,1,2,2,0,0,0,1435055517,0.05029,0.00146,0.95532,0.95665,-0.00665,-0.00428,-0.00167,0.00808,0.95665,0.00705,0.00808,3,12117,0,25925,1.02693,0.78355,0.76300,19,1,90.925,214,1,3,2599,195192,0,0,0.000,12.901,54.085,0,0.000,25.962,18.604,0,0,1,0,2
PPG,4,357891,14317190587,120,74779,79262,78075.617,1186.383,-16.672,0,0,0,0,85.71,85.71,2,1,0,nan,4,1,24,1,1,3,3,0,0,0,1435097073,0.03955,0.00293,0.95825,0.95907,-0.00665,-0.00161,-0.00221,0.00719,0.95907,0.00486,0.00735,3,12138,0,25925,1.02693,0.78355,0.76300,19,1,90.925,214,1,3,4307,195192,0,0,0.000,12.901,54.085,0,0.000,25.962,18.604,0,0,1,0,2
PPG,4,357892,14317230587,122,74823,79341,78088.273,1252.727,-6.469,1,0,0,0,85.71,85.71,2,1,0,nan,4,1,24,1,1,4,4,0,0,0,1435136226,0.04980,0.00293,0.95361,0.95492,-0.00558,-0.00161,-0.00141,0.00598,0.95492,0.00840,0.00712,3,12168,0,25925,1.02693,0.78355,0.76300,19,1,90.925,214,1,3,2596,195192,0,0,0.000,12.901,54.085,0,196.211,25.962,18.604,1,0,1,0,2
PPG,4,357893,14317270587,136,74888,79409,78101.484,1307.516,20.648,0,0,1,0,0.00,nan,1,2,0,nan,4,1,24,1,1,5,5,0,0,0,1435177806,0.04053,0.00146,0.95605,0.95691,-0.00505,0.00185,-0.00114,0.00550,0.95691,0.00269,0.00592,3,12135,0,25925,1.02693,0.78355,0.76300,19,1,90.925,214,1,2,4300,195192,0,0,121.750,12.901,54.085,1,0.000,25.962,18.604,0,1,1,0,1
PPG,4,357894,14317310587,118,74983,79514,78115.609,1398.391,67.250,0,0,0,0,0.00,nan,1,2,0,nan,4,1,24,1,1,6,6,0,0,0,1435216843,0.04810,0.00659,0.95435,0.95558,-0.00638,0.00079,-0.00087,0.00649,0.95558,0.01002,0.00649,3,12121,0,25925,1.02693,0.78355,0.76300,19,1,90.925,214,1,2,4296,195192,0,0,0.000,12.469,51.635,0,0.000,25.583,18.055,0,0,1,0,1
PPG,4,357895,14317350587,118,75155,79680,78131.250,1548.750,124.539,0,0,0,0,0.00,nan,1,2,0,nan,4,1,24,1,1,7,7,0,0,0,1435255768,0.04126,0.00171,0.95190,0.95280,-0.00612,-0.00268,-0.00247,0.00712,0.95666,0.00436,0.00712,3,12113,0,25925,1.02693,0.78355,0.76300,19,1,90.925,214,1,2,2595,195192,0,0,0.000,12.469,51.635,0,0.000,25.583,18.055,0,0,1,0,1
PPG,4,357896,14317390587,499,75221,79747,78147.406,1599.594,190.789,0,0,0,0,0.00,nan,1,2,0,nan,4,1,24,1,1,8,8,0,0,0,1435297282,0.04443,0.00366,0.95752,0.95856,-0.00638,0.00132,-0.00194,0.00680,0.96109,0.01045,0.00770,3,12141,0,25925,0.85719,0.64447,0.75184,56,1,91.204,187,1,2,4330,195192,0,0,0.000,12.469,51.635,0,0.000,25.583,18.055,0,0,1,0,1
PPG,4,357897,14317430587,166,75199,79723,78163.164,1559.836,245.938,0,0,0,0,0.00,nan,1,2,0,nan,4,1,24,1,1,9,9,0,0,0,1435336678,0.04346,0.00220,0.95337,0.95436,-0.00558,-0.00001,-0.00167,0.00583,0.95822,0.00451,0.00651,3,12119,0,25925,0.85719,0.64447,0.75184,56,1,91.204,187,1,2,4294,195192,0,0,0.000,12.469,51.635,0,0.000,25.583,18.055,0,0,1,0,1
PPG,4,357898,14317470587,120,75177,79677,78178.305,1498.695,280.078,0,0,0,0,0.00,nan,1,2,0,nan,4,1,24,1,1,10,10,0,0,0,1435375701,0.04102,0.00317,0.95679,0.95767,-0.00585,0.00105,-0.00194,0.00625,0.95767,0.00294,0.00625,3,12126,0,25925,0.85719,0.64447,0.75184,56,1,91.204,187,1,2,2599,195192,0,0,0.000,12.469,51.635,0,0.000,25.583,18.055,0,0,1,0,1
PPG,4,357899,14317510587,118,75180,79653,78193.055,1459.945,300.297,0,0,0,0,0.00,nan,1,2,0,nan,4,1,24,1,1,11,11,0,0,0,1435417267,0.04712,0.00806,0.94946,0.95067,-0.00505,0.00105,-0.00194,0.00551,0.95120,0.00728,0.00560,3,12143,0,25925,0.85719,0.64447,0.75184,56,1,91.204,187,1,2,4299,195192,0,0,0.000,12.469,51.635,0,0.000,25.583,18.055,0,0,1,0,1
PPG,4,357900,14317550587,118,75173,79602,78207.141,1394.859,308.570,0,0,0,0,0.00,nan,1,2,0,nan,4,1,24,1,1,12,12,0,0,0,1435456193,0.03882,0.00171,0.95215,0.95294,-0.00558,-0.00055,-0.00221,0.00603,0.95945,0.00651,0.00712,3,12130,0,25925,0.85719,0.64447,0.75184,56,1,91.204,187,1,2,2598,195192,0,0,0.000,12.469,51.635,0,0.000,25.583,18.055,0,0,1,0,1
PPG,4,357901,14317590587,123,75149,79596,78221.031,1374.969,304.039,0,0,0,0,0.00,nan,1,2,0,nan,4,1,24,1,1,13,13,0,0,0,1435497762,0.04468,0.00781,0.95093,0.95201,-0.00612,-0.00108,-0.00274,0.00679,0.95656,0.00362,0.00679,3,12165,0,25925,0.85719,0.64447,0.75184,56,1,91.204,187,1,2,4311,195192,0,0,0.000,12.469,51.635,0,0.000,25.583,18.055,0,0,1,0,1
PPG,4,357902,14317630587,123,75095,79579,78234.609,1344.391,271.656,0,0,0,0,0.00,nan,1,2,0,nan,4,1,24,1,1,14,14,0,0,0,1435536715,0.04077,0.00244,0.94824,0.94912,-0.00612,-0.00001,-0.00087,0.00618,0.96000,0.01088,0.00686,3,12131,0,25925,0.85719,0.64447,0.75184,56,1,91.204,187,1,2,4299,195192,0,0,0.000,12.469,51.635,0,0.000,25.583,18.055,0,0,1,0,1
PPG,4,357903,14317670587,136,75038,79549,78247.750,1301.250,224.117,0,0,0,0,0.00,nan,1,2,0,nan,4,1,24,1,1,15,15,0,0,0,1435575616,0.04370,0.00269,0.95508,0.95608,-0.00558,0.00158,-0.00061,0.00584,0.95608,0.00409,0.00634,3,12112,0,25925,0.85719,0.64447,0.75184,56,1,91.204,187,1,2,2601,195192,0,0,0.000,12.469,51.635,0,0.000,25.583,18.055,0,0,1,0,1
PPG,4,357904,14317710587,119,75070,79592,78261.195,1330.805,183.711,0,0,0,0,0.00,nan,1,2,0,nan,4,1,24,1,1,16,16,0,0,0,1435617123,0.04297,0.00342,0.95337,0.95434,-0.00638,-0.00055,-0.00087,0.00647,0.95736,0.00421,0.00647,3,12111,0,25925,0.85719,0.64447,0.75184,56,1,91.204,187,1,2,4295,195192,0,0,0.000,12.469,51.635,0,0.000,25.583,18.055,0,0,1,0,1
PPG,4,357905,14317750587,118,75053,79615,78274.734,1340.266,151.703,0,0,0,0,0.00,nan,1,2,0,nan,4,1,24,1,1,17,17,0,0,0,1435656050,0.04517,0.00220,0.95337,0.95444,-0.00612,-0.00028,-0.00141,0.00628,0.95444,0.00358,0.00655,3,12128,0,25925,0.85719,0.64447,0.75184,56,1,91.204,187,1,2,2595,195192,0,0,0.000,12.469,51.635,0,0.000,25.583,18.055,0,0,1,0,1
PPG,4,357906,14317790587,118,74963,79530,78287.289,1242.711,111.430,0,0,0,0,0.00,nan,1,2,0,nan,4,1,24,1,1,18,18,0,0,0,1435697557,0.04102,0.00781,0.95435,0.95526,-0.00558,0.00052,-0.00194,0.00593,0.95592,0.00622,0.00593,3,12116,0,25925,0.85719,0.64447,0.75184,56,1,91.204,187,1,2,4301,195192,0,0,0.000,12.469,51.635,0,0.000,25.583,18.055,0,0,1,0,1
PPG,4,357907,14317830587,119,74895,79446,78298.875,1147.125,68.391,0,0,0,0,0.00,nan,1,2,0,nan,4,1,24,1,1,19,19,0,0,0,1435736913,0.04297,0.00439,0.95020,0.95118,-0.00425,0.00132,-0.00221,0.00497,0.95359,0.00267,0.00657,3,12266,0,25925,0.85719,0.64447,0.75184,56,1,91.204,187,1,2,4308,195192,0,0,0.000,12.469,51.635,0,0.000,25.583,18.055,0,0,1,0,1
PPG,4,357908,14317870587,119,74828,79403,78309.914,1093.086,24.172,1,0,0,0,0.00,nan,1,2,0,nan,4,1,24,1,1,20,20,0,0,0,1435775825,0.04224,0.00342,0.94873,0.94968,-0.00638,-0.00188,-0.00167,0.00686,0.95362,0.00666,0.00686,3,12123,0,25925,0.85719,0.64447,0.75184,56,1,91.204,187,1,2,2600,195192,0,0,0.000,12.469,51.635,0,329.500,25.583,18.055,1,0,1,0,1
PPG,4,357909,14317910587,139,74790,79373,78320.547,1052.453,-20.508,0,0,1,640,93.75,93.75,2,1,0,nan,4,1,24,1,1,21,21,0,0,0,1435817419,0.04419,0.00537,0.95215,0.95319,-0.00532,-0.00001,-0.00194,0.00566,0.95691,0.00484,0.00568,3,12134,0,25925,0.85719,0.64447,0.75184,56,1,91.204,187,1,3,4306,195192,0,0,316.195,12.469,51.635,1,0.000,25.583,18.055,0,1,1,0,2
PPG,4,357910,14317950587,125,74767,79361,78330.953,1030.047,-58.312,0,0,0,0,93.75,93.75,2,1,0,nan,4,1,24,1,1,22,22,0,0,0,1435856582,0.04175,0.00488,0.95288,0.95381,-0.00612,0.00025,-0.00141,0.00628,0.96198,0.01063,0.00654,3,12111,0,25925,0.85719,0.64447,0.75184,56,1,91.204,187,1,3,2598,195192,0,0,0.000,13.306,56.376,0,0.000,26.084,18.781,0,0,1,0,2
PPG,4,357911,14317990587,127,74769,79400,78341.641,1058.359,-92.641,0,0,0,0,93.75,93.75,2,1,0,nan,4,1,24,1,1,23,23,0,0,0,1435897981,0.04565,-0.00098,0.95581,0.95690,-0.00638,-0.00028,-0.00114,0.00649,0.95897,0.00517,0.00649,2,24094,0,25926,0.85719,0.64447,0.75184,56,1,91.204,187,1,3,4375,195192,0,0,0.000,13.306,56.376,0,0.000,26.084,18.781,0,0,1,0,2
PPG,4,357912,14318030587,125,74801,79428,78352.508,1075.492,-123.711,0,0,0,0,93.75,93.75,2,1,0,nan,4,1,24,1,1,24,24,0,0,0,1435937075,0.04272,0.00586,0.95068,0.95166,-0.00612,-0.00081,-0.00007,0.00617,0.95841,0.00476,0.00617,3,12174,0,25926,0.85719,0.64447,0.75184,56,1,91.204,187,1,3,4298,195192,0,0,0.000,13.306,56.376,0,0.000,26.084,18.781,0,0,1,0,2
PPG,4,357913,14318070587,121,74809,79431,78363.289,1067.711,-138.953,0,0,0,0,93.75,93.75,2,1,0,nan,4,1,24,1,1,25,25,0,0,0,1435976013,0.04614,0.00586,0.95605,0.95719,-0.00638,-0.00108,-0.00061,0.00650,0.95719,0.00462,0.00705,3,12112,0,25926,0.85719,0.64447,0.75184,56,1,91.204,187,1,3,2594,195192,0,0,0.000,13.306,56.376,0,0.000,26.084,18.781,0,0,1,0,2
PPG,4,357914,14318110587,123,74853,79484,78374.500,1109.500,-132.023,0,0,0,0,93.75,93.75,2,1,0,nan,4,1,24,1,1,26,26,0,0,0,1436017582,0.04541,0.00586,0.95044,0.95154,-0.00638,-0.00081,-0.00087,0.00649,0.95154,0.00573,0.00650,3,12163,0,25926,0.85719,0.64447,0.75184,56,1,91.204,187,1,3,4332,195192,0,0,0.000,13.306,56.376,0,0.000,26.084,18.781,0,0,1,0,2
PPG,4,357915,14318150587,190,74805,79438,78385.133,1052.867,-114.922,0,0,0,0,93.75,93.75,2,1,0,nan,4,1,24,1,1,27,27,0,0,0,1436056556,0.04395,0.00098,0.95630,0.95731,-0.00585,-0.00081,-0.00061,0.00594,0.95731,0.00307,0.00648,3,12114,0,25926,0.85719,0.64447,0.75184,56,1,91.204,187,1,3,2595,195192,0,0,0.000,13.306,56.376,0,0.000,26.084,18.781,0,0,1,0,2
PPG,4,357916,14318190587,123,74712,79287,78394.148,892.852,-104.211,0,0,0,0,93.75,93.75,2,1,0,nan,4,1,24,1,1,28,28,0,0,0,1436098355,0.04077,0.00220,0.95435,0.95522,-0.00612,-0.00215,-0.00274,0.00704,0.95522,0.00645,0.00738,3,12125,0,25926,0.85719,0.64447,0.75184,56,1,91.204,187,1,3,4306,195192,0,0,0.000,13.306,56.376,0,0.000,26.084,18.781,0,0,1,0,2
PPG,4,357917,14318230587,121,74627,79179,78402.000,777.000,-103.008,0,0,0,0,93.75,93.75,2,1,0,nan,4,1,24,1,1,29,29,0,0,0,1436137362,0.04639,0.00464,0.94995,0.95109,-0.00612,0.00025,-0.00061,0.00615,0.95233,0.00403,0.00661,3,12163,0,25926,0.85719,0.64447,0.75184,56,1,91.204,187,1,3,4330,195192,0,0,0.000,13.306,56.376,0,0.000,26.084,18.781,0,0,1,0,2
PPG,4,357918,14318270587,131,74664,79215,78410.133,804.867,-106.336,0,0,0,0,93.75,93.75,2,1,0,nan,4,1,24,1,1,30,30,0,0,0,1436176385,0.04224,0.00342,0.95581,0.95675,-0.00558,0.00052,-0.00061,0.00564,0.95797,0.00688,0.00636,3,12135,0,25926,0.85719,0.64447,0.75184,56,1,91.204,187,1,3,2598,195192,0,0,0.000,13.306,56.376,0,0.000,26.084,18.781,0,0,1,0,2
PPG,4,357919,14318310587,123,74686,79263,78418.664,844.336,-110.406,0,0,0,0,93.75,93.75,2,1,0,nan,4,1,24,1,1,31,31,0,0,0,1436217976,0.04224,0.00024,0.95532,0.95626,-0.00638,-0.00055,-0.00061,0.00644,0.95827,0.00202,0.00644,3,12156,0,25926,0.85719,0.64447,0.75184,56,1,91.204,187,1,3,4299,195192,0,0,0.000,13.306,56.376,0,0.000,26.084,18.781,0,0,1,0,2
PPG,4,357920,14318350587,145,74706,79293,78427.406,865.594,-114.672,0,0,0,0,93.75,93.75,2,1,0,nan,4,1,24,1,1,0,0,0,0,0,1436256973,0.04102,0.00342,0.94971,0.95060,-0.00558,0.00185,-0.00087,0.00595,0.95517,0.00327,0.00595,3,12129,0,25926,0.85719,0.64447,0.75184,56,1,91.204,187,1,3,4305,195192,0,0,0.000,13.306,56.376,0,0.000,26.084,18.781,0,0,1,0,2
PPG,4,357921,14318390587,517,74729,79332,78436.453,895.547,-123.188,0,0,0,0,93.75,93.75,2,1,0,nan,4,1,24,1,1,1,1,0,0,0,1436296447,0.04639,0.00610,0.95313,0.95427,-0.00558,0.00105,-0.00114,0.00580,0.95427,0.00272,0.00697,3,12264,0,25926,0.39893,0.25943,0.65031,97,1,93.742,78,1,3,2626,195192,0,0,0.000,13.306,56.376,0,0.000,26.084,18.781,0,0,1,0,2
PPG,4,357922,14318430587,182,74747,79366,78445.750,920.250,-122.820,0,0,0,0,93.75,93.75,2,1,0,nan,4,1,24,1,1,2,2,0,0,0,1436338940,0.04395,0.00293,0.95239,0.95341,-0.00612,-0.00135,-0.00274,0.00684,0.95665,0.00894,0.00684,3,12262,0,25926,0.39893,0.25943,0.65031,97,1,93.742,78,1,3,4363,195192,0,0,0.000,13.306,56.376,0,0.000,26.084,18.781,0,0,1,0,2
PPG,4,357923,14318470587,130,74783,79392,78455.211,936.789,-99.969,0,0,0,0,93.75,93.75,2,1,0,nan,4,1,24,1,1,3,3,0,0,0,1436378286,0.03857,0.00342,0.95679,0.95757,-0.00585,-0.00161,-0.00061,0.00610,0.95757,0.00423,0.00656,3,12215,0,25926,0.39893,0.25943,0.65031,97,1,93.742,78,1,3,4340,195192,0,0,0.000,13.306,56.376,0,0.000,26.084,18.781,0,0,1,0,2
PPG,4,357924,14318510587,126,74808,79416,78464.820,951.180,-57.312,0,0,0,0,93.75,93.75,2,1,0,nan,4,1,24,1,1,4,4,0,0,0,1436417615,0.04248,0.00366,0.94775,0.94871,-0.00585,0.00079,-0.00141,0.00607,0.95519,0.00498,0.00645,3,12259,0,25926,0.39893,0.25943,0.65031,97,1,93.742,78,1,3,4354,195192,0,0,0.000,13.306,56.376,0,0.000,26.084,18.781,0,0,1,0,2
PPG,4,357925,14318550587,129,74815,79437,78474.539,962.461,-16.703,1,0,0,0,93.75,93.75,2,1,0,nan,4,1,24,1,1,5,5,0,0,0,1436456965,0.04175,0.00366,0.95459,0.95551,-0.00585,-0.00135,-0.00141,0.00617,0.95551,0.00528,0.00624,3,12256,0,25926,0.39893,0.25943,0.65031,97,1,93.742,78,1,3,4339,195192,0,0,0.000,13.306,56.376,0,35.945,26.084,18.781,1,0,1,0,2
PPG,4,357926,14318590587,127,74831,79477,78484.562,992.438,16.523,0,0,0,0,93.75,93.75,2,1,0,nan,4,1,24,1,1,6,6,0,0,0,1436496310,0.04370,0.00317,0.95337,0.95438,-0.00692,-0.00055,-0.00141,0.00708,0.95919,0.00950,0.00708,3,12269,0,25926,0.39893,0.25943,0.65031,97,1,93.742,78,1,3,2643,195192,0,0,0.000,13.306,56.376,0,0.000,26.084,18.781,0,0,1,0,2
PPG,4,357927,14318630587,126,74836,79483,78494.547,988.453,41.812,0,0,0,0,93.75,93.75,2,1,0,nan,4,1,24,1,1,7,7,0,0,0,1436538299,0.04565,0.00537,0.95313,0.95423,-0.00638,-0.00028,-0.00141,0.00654,0.95672,0.00335,0.00667,3,12215,0,25926,0.39893,0.25943,0.65031,97,1,93.742,78,1,3,4346,195192,0,0,0.000,13.306,56.376,0,0.000,26.084,18.781,0,0,1,0,2
PPG,4,357928,14318670587,122,74860,79516,78504.758,1011.242,62.453,0,0,0,0,93.75,93.75,2,1,0,nan,4,1,24,1,1,8,8,0,0,0,1436577692,0.04468,0.00562,0.95264,0.95370,-0.00585,-0.00108,-0.00167,0.00618,0.95370,0.00332,0.00635,3,12251,0,25926,0.39893,0.25943,0.65031,97,1,93.742,78,1,3,4328,195192,0,0,0.000,13.306,56.376,0,0.000,26.084,18.781,0,0,1,0,2
PPG,4,357929,14318710587,124,74872,79552,78515.227,1036.773,80.070,0,0,0,0,93.75,93.75,2,1,0,nan,4,1,24,1,1,9,9,0,0,0,1436616923,0.04053,0.00415,0.95435,0.95521,-0.00585,-0.00135,-0.00141,0.00617,0.95669,0.00459,0.00628,3,12216,0,25926,0.39893,0.25943,0.65031,97,1,93.742,78,1,3,4351,195192,0,0,0.000,13.306,56.376,0,0.000,26.084,18.781,0,0,1,0,2
PPG,4,357930,14318750587,121,74881,79553,78525.602,1027.398,93.469,0,0,0,0,93.75,93.75,2,1,0,nan,4,1,24,1,1,10,10,0,0,0,1436656239,0.04150,0.00537,0.95068,0.95160,-0.00532,-0.00028,0.00019,0.00533,0.95880,0.00720,0.00673,3,12238,0,25926,0.39893,0.25943,0.65031,97,1,93.742,78,1,3,2653,195192,0,0,0.000,13.306,56.376,0,0.000,26.084,18.781,0,0,1,0,2
PPG,4,357931,14318790587,126,74880,79551,78535.859,1015.141,105.211,0,0,0,0,93.75,93.75,2,1,0,nan,4,1,24,1,1,11,11,0,0,0,1436698179,0.04565,0.00928,0.95239,0.95353,-0.00638,-0.00081,-0.00194,0.00672,0.95353,0.00406,0.00677,3,12259,0,25926,0.39893,0.25943,0.65031,97,1,93.742,78,1,3,4336,195192,0,0,0.000,13.306,56.376,0,0.000,26.084,18.781,0,0,1,0,2
PPG,4,357932,14318830587,120,74856,79552,78546.023,1005.977,115.438,0,0,0,0,93.75,93.75,2,1,0,nan,4,1,24,1,1,12,12,0,0,0,1436737458,0.04297,0.00391,0.94946,0.95044,-0.00612,0.00052,-0.00221,0.00652,0.95312,0.00230,0.00690,3,12240,0,25926,0.39893,0.25943,0.65031,97,1,93.742,78,1,3,4320,195192,0,0,0.000,13.306,56.376,0,0.000,26.084,18.781,0,0,1,0,2
PPG,4,357933,14318870587,120,74864,79536,78555.922,980.078,118.609,0,0,0,0,93.75,93.75,2,1,0,nan,4,1,24,1,1,13,13,0,0,0,1436776790,0.04492,0.00293,0.95801,0.95906,-0.00692,-0.00081,-0.00247,0.00739,0.95906,0.00717,0.00742,3,12243,0,25926,0.39893,0.25943,0.65031,97,1,93.742,78,1,3,2649,195192,0,0,0.000,13.306,56.376,0,0.000,26.084,18.781,0,0,1,0,2
PPG,4,357934,14318910587,131,74843,79452,78564.883,887.117,115.789,0,1,0,0,93.75,93.75,2,1,0,nan,4,1,24,1,1,14,14,0,0,0,1436818680,0.04321,0.00537,0.95923,0.96022,-0.00665,-0.00055,-0.00114,0.00677,0.96022,0.00727,0.00701,3,12225,0,25926,0.39893,0.25943,0.65031,97,1,93.742,78,1,3,4331,195192,0,0,0.000,13.306,56.376,0,0.000,26.084,18.781,0,0,1,0,2
PPG,4,357935,14318950587,127,74792,79392,78573.156,818.844,100.367,0,0,0,0,93.75,93.75,2,1,0,nan,4,1,24,1,1,15,15,0,0,0,1436857994,0.04346,0.00586,0.95410,0.95511,-0.00585,-0.00001,-0.00194,0.00616,0.95665,0.01881,0.00703,3,12236,0,25926,0.39893,0.25943,0.65031,97,1,93.742,78,1,3,4318,195192,0,0,0.000,13.306,56.376,0,0.000,26.084,18.781,0,0,1,0,2
PPG,4,357936,14318990587,124,74793,79402,78581.445,820.555,73.188,0,0,0,0,93.75,93.75,2,1,0,nan,4,1,24,1,1,16,16,0,0,0,1436901201,0.03955,0.00220,0.95972,0.96053,-0.00399,0.00025,-0.00141,0.00423,0.96053,0.00483,0.00651,3,16228,0,25926,0.39893,0.25943,0.65031,97,1,93.742,78,1,3,16164,195192,0,0,0.000,13.306,56.376,0,0.000,26.084,18.781,0,0,1,0,2
PPG,4,357937,14319030587,126,74806,79450,78590.133,859.867,44.930,0,0,0,0,93.75,93.75,2,1,0,nan,4,1,24,1,1,17,17,0,0,0,1436937920,0.04297,0.00098,0.95752,0.95848,-0.00638,0.00025,-0.00221,0.00676,0.95848,0.00924,0.00676,3,12258,0,25926,0.39893,0.25943,0.65031,97,1,93.742,78,1,3,4315,195192,0,0,0.000,13.306,56.376,0,0.000,26.084,18.781,0,0,1,0,2
PPG,4,357938,14319070587,121,74847,79470,78598.930,871.070,20.609,0,0,0,0,93.75,93.75,2,1,0,nan,4,1,24,1,1,18,18,0,0,0,1436976916,0.04199,0.00513,0.95264,0.95358,-0.00612,0.00025,-0.00167,0.00635,0.95358,0.00608,0.00662,3,12148,0,25926,0.39893,0.25943,0.65031,97,1,93.742,78,1,3,4323,195192,0,0,0.000,13.306,56.376,0,0.000,26.084,18.781,0,0,1,0,2
PPG,4,357939,14319110587,120,74847,79494,78607.883,886.117,0.773,0,0,0,0,93.75,93.75,2,1,0,nan,4,1,24,1,1,19,19,0,0,0,1437015876,0.04468,0.00586,0.94604,0.94712,-0.00612,-0.00055,-0.00167,0.00637,0.96045,0.01333,0.00637,3,12123,0,25926,0.39893,0.25943,0.65031,97,1,93.742,78,1,3,2604,195192,0,0,0.000,13.306,56.376,0,0.000,26.084,18.781,0,0,1,0,2
PPG,4,357940,14319150587,122,74832,79501,78616.812,884.188,-14.633,0,0,0,0,93.75,93.75,2,1,0,nan,4,1,24,1,1,20,20,0,0,0,1437057511,0.04419,0.00317,0.95068,0.95172,-0.00638,-0.00108,-0.00167,0.00669,0.95332,0.00621,0.00732,3,12127,0,25926,0.39893,0.25943,0.65031,97,1,93.742,78,1,3,4300,195192,0,0,0.000,13.306,56.376,0,0.000,26.084,18.781,0,0,1,0,2
PPG,4,357941,14319190587,122,74841,79512,78625.766,886.234,-15.062,1,0,0,0,93.75,93.75,2,1,0,nan,4,1,24,1,1,21,21,0,0,0,1437096527,0.04492,0.00317,0.95093,0.95199,-0.00745,-0.00268,-0.00141,0.00804,0.95349,0.00479,0.00804,3,12115,0,25926,0.39893,0.25943,0.65031,97,1,93.742,78,1,3,2595,195192,0,0,0.000,13.306,56.376,0,241.797,26.084,18.781,1,0,1,0,2
PPG,4,357942,14319230587,149,74831,79499,78634.500,864.500,-6.422,0,0,1,1320,45.45,45.45,2,1,0,nan,4,1,24,1,1,22,22,0,0,0,1437138139,0.04321,0.00439,0.95337,0.95436,-0.00612,0.00052,-0.00194,0.00644,0.96052,0.01376,0.00778,3,12132,0,25926,0.39893,0.25943,0.65031,97,1,93.742,78,1,3,4300,195192,0,0,272.211,13.306,56.376,1,0.000,26.084,18.781,0,1,1,0,3
PPG,4,357943,14319270587,124,74851,79517,78643.328,873.672,3.758,0,0,0,0,45.45,45.45,2,1,0,nan,4,1,24,1,1,23,23,0,0,0,1437177149,0.04224,0.00439,0.95679,0.95773,-0.00532,-0.00001,-0.00167,0.00557,0.95773,0.00390,0.00659,3,12110,0,25926,0.39893,0.25943,0.65031,97,1,93.742,78,1,3,4303,195192,0,0,0.000,13.763,58.967,0,0.000,25.975,18.622,0,0,1,0,3
PPG,4,357944,14319310587,124,74895,79569,78652.586,916.414,13.109,0,0,0,0,45.45,45.45,2,1,0,nan,4,1,24,1,1,24,24,0,0,0,1437216087,0.04248,0.00513,0.95459,0.95555,-0.00612,-0.00188,-0.00114,0.00650,0.95593,0.00736,0.00650,3,12125,0,25926,0.39893,0.25943,0.65031,97,1,93.742,78,1,3,2599,195192,0,0,0.000,13.763,58.967,0,0.000,25.975,18.622,0,0,1,0,3
PPG,4,357945,14319350587,120,74943,79637,78662.430,974.570,26.961,0,0,0,0,45.45,45.45,2,1,0,nan,4,1,24,1,1,25,25,0,0,0,1437257682,0.04150,0.00635,0.95508,0.95600,-0.00665,-0.00028,-0.00274,0.00720,0.95600,0.00654,0.00720,3,12144,0,25926,0.39893,0.25943,0.65031,97,1,93.742,78,1,3,4296,195192,0,0,0.000,13.763,58.967,0,0.000,25.975,18.622,0,0,1,0,3
PPG,4,357946,14319390587,513,74950,79650,78672.305,977.695,40.602,0,0,0,0,45.45,45.45,2,1,0,nan,4,1,24,1,1,26,26,0,0,0,1437296615,0.04102,0.00586,0.95215,0.95305,-0.00585,-0.00108,-0.00221,0.00635,0.95305,0.00539,0.00689,3,12111,0,25926,0.26265,0.19011,0.72380,97,1,91.905,75,1,3,2602,195192,0,0,0.000,13.763,58.967,0,0.000,25.975,18.622,0,0,1,0,3
PPG,4,357947,14319430587,169,74900,79616,78681.742,934.258,50.383,0,0,0,0,45.45,45.45,2,1,0,nan,4,1,24,1,1,27,27,0,0,0,1437338605,0.04419,0.00293,0.94897,0.95001,-0.00638,-0.00108,-0.00061,0.00650,0.95793,0.00793,0.00651,3,12124,0,25926,0.26265,0.19011,0.72380,97,1,91.905,75,1,3,4325,195192,0,0,0.000,13.763,58.967,0,0.000,25.975,18.622,0,0,1,0,3
PPG,4,357948,14319470587,124,74885,79595,78690.875,904.125,58.289,0,0,0,0,45.45,45.45,2,1,0,nan,4,1,24,1,1,28,28,0,0,0,1437377623,0.04419,0.00366,0.95557,0.95659,-0.00558,-0.00135,-0.00007,0.00574,0.95892,0.00574,0.00683,3,12114,0,25926,0.26265,0.19011,0.72380,97,1,91.905,75,1,3,4297,195192,0,0,0.000,13.763,58.967,0,0.000,25.975,18.622,0,0,1,0,3
PPG,4,357949,14319510587,132,74802,79540,78699.367,840.633,64.742,0,0,0,0,45.45,45.45,2,1,0,nan,4,1,24,1,1,29,29,0,0,0,1437416557,0.04272,0.00537,0.94824,0.94922,-0.00505,0.00238,-0.00061,0.00562,0.95748,0.00601,0.00562,3,12117,0,25926,0.26265,0.19011,0.72380,97,1,91.905,75,1,3,2594,195192,0,0,0.000,13.763,58.967,0,0.000,25.975,18.622,0,0,1,0,3
PPG,4,357950,14319550587,127,74770,79501,78707.383,793.617,65.062,0,0,0,0,45.45,45.45,2,1,0,nan,4,1,24,1,1,30,30,0,0,0,1437458171,0.03906,0.00537,0.95264,0.95345,-0.00718,-0.00001,-0.00247,0.00760,0.96054,0.00709,0.00760,3,12137,0,25926,0.26265,0.19011,0.72380,97,1,91.905,75,1,3,4303,195192,0,0,0.000,13.763,58.967,0,0.000,25.975,18.622,0,0,1,0,3
PPG,4,357951,14319590587,133,74747,79425,78714.562,710.438,50.789,0,0,0,0,45.45,45.45,2,1,0,nan,4,1,24,1,1,31,31,0,0,0,1437497157,0.04126,0.00537,0.95044,0.95135,-0.00558,-0.00108,-0.00167,0.00593,0.95600,0.00465,0.00752,3,12113,0,25926,0.26265,0.19011,0.72380,97,1,91.905,75,1,3,4302,195192,0,0,0.000,13.763,58.967,0,0.000,25.975,18.622,0,0,1,0,3
PPG,4,357952,14319630587,123,74700,79320,78720.617,599.383,17.102,0,0,0,0,45.45,45.45,2,1,0,nan,4,1,24,1,1,0,0,0,0,0,1437536211,0.04321,0.00293,0.94922,0.95021,-0.00612,-0.00081,-0.00114,0.00628,0.95581,0.00560,0.00677,3,12130,0,25926,0.26265,0.19011,0.72380,97,1,91.905,75,1,3,2600,195192,0,0,0.000,13.763,58.967,0,0.000,25.975,18.622,0,0,1,0,3
PPG,4,357953,14319670587,120,74677,79266,78726.070,539.930,-24.258,0,0,0,0,45.45,45.45,2,1,0,nan,4,1,24,1,1,1,1,0,0,0,1437577773,0.04272,0.00610,0.95435,0.95532,-0.00558,-0.00108,-0.00061,0.00572,0.95532,0.00341,0.00598,3,12116,0,25926,0.26265,0.19011,0.72380,97,1,91.905,75,1,3,4306,195192,0,0,0.000,13.763,58.967,0,0.000,25.975,18.622,0,0,1,0,3
PPG,4,357954,14319710587,123,74708,79297,78731.781,565.219,-62.078,0,0,0,0,45.45,45.45,2,1,0,nan,4,1,24,1,1,2,2,0,0,0,1437616732,0.04492,0.00586,0.95483,0.95591,-0.00612,-0.00001,-0.00194,0.00642,0.95591,0.00785,0.00642,3,12129,0,25926,0.26265,0.19011,0.72380,97,1,91.905,75,1,3,2604,195192,0,0,0.000,13.763,58.967,0,0.000,25.975,18.622,0,0,1,0,3
PPG,4,357955,14319750587,119,74705,79338,78737.844,600.156,-96.094,0,0,0,0,45.45,45.45,2,1,0,nan,4,1,24,1,1,3,3,0,0,0,1437658317,0.04297,0.00342,0.95459,0.95556,-0.00532,0.00025,-0.00167,0.00558,0.95556,0.00307,0.00628,3,12168,0,25926,0.26265,0.19011,0.72380,97,1,91.905,75,1,3,4306,195192,0,0,0.000,13.763,58.967,0,0.000,25.975,18.622,0,0,1,0,3
PPG,4,357956,14319790587,127,74739,79380,78744.266,635.734,-117.852,0,0,0,0,45.45,45.45,2,1,0,nan,4,1,24,1,1,4,4,0,0,0,1437697252,0.04224,0.00439,0.95288,0.95383,-0.00505,-0.00108,-0.00167,0.00543,0.95383,0.00381,0.00630,3,12109,0,25926,0.26265,0.19011,0.72380,97,1,91.905,75,1,3,4296,195192,0,0,42.250,13.763,58.967,1,0.000,25.975,18.622,0,0,1,0,3
PPG,4,357957,14319830587,119,74744,79397,78750.789,646.211,-130.062,0,0,0,0,45.45,45.45,2,1,0,nan,4,1,24,1,1,5,5,0,0,0,1437736219,0.04102,0.00635,0.95410,0.95500,-0.00505,-0.00028,-0.00221,0.00552,0.95745,0.00363,0.00552,3,12125,0,25926,0.26265,0.19011,0.72380,97,1,91.905,75,1,3,2598,195192,0,0,0.000,13.763,58.967,0,0.000,25.975,18.622,0,0,1,0,3
PPG,4,357958,14319870587,144,74744,79401,78757.289,643.711,-130.039,1,0,1,620,93.75,93.75,2,1,0,nan,4,1,24,1,1,6,6,0,0,0,1437777876,0.04150,0.00122,0.95654,0.95744,-0.00558,-0.00135,-0.00061,0.00578,0.95744,0.00451,0.00578,3,12143,0,25926,0.26265,0.19011,0.72380,97,1,91.905,75,1,3,4302,195192,0,0,0.000,13.763,58.967,0,80.125,25.975,18.622,1,1,1,0,4
PPG,4,357959,14319910587,121,74746,79407,78763.789,643.211,-113.258,0,0,0,0,93.75,93.75,2,1,0,nan,4,1,24,1,1,7,7,0,0,0,1437816895,0.03955,0.00562,0.94995,0.95079,-0.00532,-0.00108,-0.00141,0.00561,0.95205,0.00607,0.00635,3,12127,0,25926,0.26265,0.19011,0.72380,97,1,91.905,75,1,3,2595,195192,0,0,0.000,12.726,53.092,0,0.000,24.868,17.020,0,0,1,0,4
PPG,4,357960,14319950587,123,74757,79425,78770.398,654.602,-86.742,0,0,0,0,93.75,93.75,2,1,0,nan,4,1,24,1,1,8,8,0,0,0,1437858501,0.04150,0.00464,0.94995,0.95087,-0.00558,-0.00135,-0.00194,0.00606,0.95408,0.00322,0.00651,3,12162,0,25926,0.26265,0.19011,0.72380,97,1,91.905,75,1,3,4310,195192,0,0,0.000,12.726,53.092,0,0.000,24.868,17.020,0,0,1,0,4
PPG,4,357961,14319990587,127,74774,79447,78777.164,669.836,-62.062,0,0,0,0,93.75,93.75,2,1,0,nan,4,1,24,1,1,9,9,0,0,0,1437901589,0.04272,0.00562,0.95166,0.95264,-0.00585,0.00132,-0.00087,0.00606,0.95471,0.00586,0.00630,3,16237,0,25926,0.26265,0.19011,0.72380,97,1,91.905,75,1,3,16181,195192,0,0,0.000,12.726,53.092,0,0.000,24.868,17.020,0,0,1,0,4
PPG,4,357962,14320030587,128,74786,79488,78784.273,703.727,-40.086,0,0,0,0,93.75,93.75,2,1,0,nan,4,1,24,1,1,10,10,0,0,0,1437938082,0.04175,0.00171,0.95288,0.95380,-0.00558,-0.00028,-0.00194,0.00592,0.95737,0.00698,0.00651,3,12122,0,25926,0.26265,0.19011,0.72380,97,1,91.905,75,1,3,4307,195192,0,0,0.000,12.726,53.092,0,0.000,24.868,17.020,0,0,1,0,4
PPG,4,357963,14320070587,123,74813,79512,78791.547,720.453,-20.977,0,0,0,0,93.75,93.75,2,1,0,nan,4,1,24,1,1,11,11,0,0,0,1437977103,0.04321,0.00317,0.95386,0.95484,-0.00665,-0.00001,-0.00114,0.00675,0.95945,0.00496,0.00675,3,12130,0,25926,0.26265,0.19011,0.72380,97,1,91.905,75,1,3,2602,195192,0,0,0.000,12.726,53.092,0,0.000,24.868,17.020,0,0,1,0,4
PPG,4,357964,14320110587,125,74847,79564,78799.273,764.727,3.133,0,0,0,0,93.75,93.75,2,1,0,nan,4,1,24,1,1,12,12,0,0,0,1438018637,0.04004,0.00122,0.95142,0.95226,-0.00558,-0.00108,-0.00167,0.00593,0.95863,0.00717,0.00680,3,12118,0,25926,0.26265,0.19011,0.72380,97,1,91.905,75,1,3,4310,195192,0,0,0.000,12.726,53.092,0,0.000,24.868,17.020,0,0,1,0,4
PPG,4,357965,14320150587,123,74870,79593,78807.211,785.789,32.758,0,0,0,0,93.75,93.75,2,1,0,nan,4,1,24,1,1,13,13,0,0,0,1438057596,0.04297,0.00952,0.95190,0.95292,-0.00532,-0.00055,-0.00141,0.00553,0.95707,0.01334,0.00611,3,12128,0,25926,0.26265,0.19011,0.72380,97,1,91.905,75,1,3,4312,195192,0,0,0.000,12.726,53.092,0,0.000,24.868,17.020,0,0,1,0,4
PPG,4,357966,14320190587,124,74887,79617,78815.312,801.688,64.406,0,0,0,0,93.75,93.75,2,1,0,nan,4,1,24,1,1,14,14,0,0,0,1438096848,0.04492,0.00415,0.96094,0.96200,-0.00558,-0.00055,-0.00114,0.00573,0.96200,0.01051,0.00573,3,12148,0,25926,0.26265,0.19011,0.72380,97,1,91.905,75,1,3,2603,195192,0,0,0.000,12.726,53.092,0,0.000,24.868,17.020,0,0,1,0,4
PPG,4,357967,14320230587,124,74884,79625,78823.406,801.594,92.531,0,0,0,0,93.75,93.75,2,1,0,nan,4,1,24,1,1,15,15,0,0,0,1438138533,0.04370,0.00366,0.95679,0.95779,-0.00638,-0.00135,-0.00034,0.00653,0.95830,0.01012,0.00695,3,12174,0,25926,0.26265,0.19011,0.72380,97,1,91.905,75,1,3,4297,195192,0,0,0.000,12.726,53.092,0,0.000,24.868,17.020,0,0,1,0,4
PPG,4,357968,14320270587,125,74862,79583,78831.000,752.000,112.562,0,0,0,0,93.75,93.75,2,1,0,nan,4,1,24,1,1,16,16,0,0,0,1438177546,0.04272,0.00830,0.95630,0.95729,-0.00612,0.00052,-0.00114,0.00624,0.95794,0.00644,0.00624,3,12151,0,25926,0.26265,0.19011,0.72380,97,1,91.905,75,1,3,4299,195192,0,0,0.000,12.726,53.092,0,0.000,24.868,17.020,0,0,1,0,4
PPG,4,357969,14320310587,128,74882,79541,78838.102,702.898,120.078,0,0,0,0,93.75,93.75,2,1,0,nan,4,1,24,1,1,17,17,0,0,0,1438216639,0.04663,0.00854,0.95386,0.95503,-0.00585,0.00025,-0.00194,0.00617,0.95741,0.00189,0.00665,3,12104,0,25926,0.26265,0.19011,0.72380,97,1,91.905,75,1,3,2598,195192,0,0,0.000,12.726,53.092,0,0.000,24.868,17.020,0,0,1,0,4
PPG,4,357970,14320350587,125,74934,79596,78845.680,750.320,127.328,0,0,0,0,93.75,93.75,2,1,0,nan,4,1,24,1,1,18,18,0,0,0,1438258280,0.04126,0.00635,0.96021,0.96111,-0.00692,-0.00055,-0.00167,0.00714,0.96111,0.00930,0.00714,3,12146,0,25926,0.26265,0.19011,0.72380,97,1,91.905,75,1,3,4330,195192,0,0,0.000,12.726,53.092,0,0.000,24.868,17.020,0,0,1,0,4
PPG,4,357971,14320390587,518,74936,79614,78853.359,760.641,125.023,0,0,0,0,93.75,93.75,2,1,0,nan,4,0,24,1,1,19,19,0,0,0,1438297289,0.04102,0.00269,0.95801,0.95889,-0.00638,-0.00188,-0.00194,0.00693,0.95889,0.00692,0.00693,3,12122,0,25926,0.22592,0.18645,0.82531,81,1,89.367,45,1,3,4302,195192,0,0,0.000,12.726,53.092,0,0.000,24.868,17.020,0,0,1,0,4
PPG,4,357972,14320430587,182,74894,79589,78860.719,728.281,111.000,0,1,0,0,93.75,93.75,2,1,0,nan,4,0,24,1,1,20,20,0,0,0,1438336715,0.04883,0.00928,0.95068,0.95198,-0.00718,-0.00108,-0.00087,0.00732,0.95698,0.00737,0.00732,3,12135,0,25926,0.22592,0.18645,0.82531,81,1,89.367,45,1,3,2602,195192,0,0,0.000,12.726,53.092,0,0.000,24.868,17.020,0,0,1,0,4
PPG,4,357973,14320470587,123,74830,79526,78867.375,658.625,85.000,0,0,0,0,93.75,93.75,2,1,0,nan,4,0,24,1,1,21,21,0,0,0,1438378420,0.04419,0.00562,0.95215,0.95319,-0.00585,0.00052,-0.00194,0.00619,0.95537,0.00339,0.00648,3,12161,0,25926,0.22592,0.18645,0.82531,81,1,89.367,45,1,3,4312,195192,0,0,0.000,12.726,53.092,0,0.000,24.868,17.020,0,0,1,0,4
PPG,4,357974,14320510587,125,74799,79509,78873.789,635.211,57.828,0,0,0,0,93.75,93.75,2,1,0,nan,4,0,24,1,1,22,22,0,0,0,1438417391,0.04468,0.00269,0.95142,0.95247,-0.00505,-0.00001,-0.00087,0.00513,0.95396,0.00189,0.00622,3,12125,0,25926,0.22592,0.18645,0.82531,81,1,89.367,45,1,3,4304,195192,0,0,0.000,12.726,53.092,0,0.000,24.868,17.020,0,0,1,0,4
PPG,4,357975,14320550587,123,74778,79490,78879.953,610.047,36.938,0,0,0,0,93.75,93.75,2,1,0,nan,4,0,24,1,1,23,23,0,0,0,1438456386,0.04590,0.00391,0.94873,0.94985,-0.00692,-0.00028,-0.00194,0.00719,0.95950,0.00704,0.00719,3,12140,0,25926,0.22592,0.18645,0.82531,81,1,89.367,45,1,3,2599,195192,0,0,0.000,12.726,53.092,0,0.000,24.868,17.020,0,0,1,0,4
PPG,4,357976,14320590587,130,74767,79474,78885.891,588.109,22.672,0,0,0,0,93.75,93.75,2,1,0,nan,4,0,24,1,1,24,24,0,0,0,1438498107,0.04297,0.00195,0.95337,0.95434,-0.00692,0.00025,-0.00141,0.00706,0.95828,0.00632,0.00706,3,12132,0,25926,0.22592,0.18645,0.82531,81,1,89.367,45,1,3,4306,195192,0,0,0.000,12.726,53.092,0,0.000,24.868,17.020,0,0,1,0,4
PPG,4,357977,14320630587,124,74777,79482,78891.852,590.148,2.141,0,0,0,0,93.75,93.75,2,1,0,nan,4,0,24,1,1,25,25,0,0,0,1438537352,0.03955,0.00024,0.95239,0.95321,-0.00665,-0.00028,-0.00194,0.00693,0.95488,0.00486,0.00693,3,12262,0,25926,0.22592,0.18645,0.82531,81,1,89.367,45,1,3,4320,195192,0,0,0.000,12.726,53.092,0,0.000,24.868,17.020,0,0,1,0,4
PPG,4,357978,14320670587,126,74773,79493,78897.859,595.141,-19.750,1,0,0,0,93.75,93.75,2,1,0,nan,4,0,24,1,1,26,26,0,0,0,1438576715,0.04590,0.00684,0.95190,0.95303,-0.00638,-0.00055,-0.00114,0.00651,0.95416,0.00294,0.00651,3,12295,0,25926,0.22592,0.18645,0.82531,81,1,89.367,45,1,3,2635,195192,0,0,0.000,12.726,53.092,0,257.391,24.868,17.020,1,0,1,0,4
PPG,4,357979,14320710587,144,74768,79490,78903.781,586.219,-38.039,0,0,1,860,69.77,69.77,2,1,512,nan,4,0,24,1,1,27,27,0,0,0,1438618653,0.04224,0.00635,0.95142,0.95237,-0.00585,-0.00028,-0.00087,0.00592,0.95491,0.00241,0.00648,3,12220,0,25926,0.22592,0.18645,0.82531,81,1,89.367,45,1,3,4350,195192,0,0,187.383,12.726,53.092,1,0.000,24.868,17.020,0,1,1,0,5
PPG,4,357980,14320750587,138,74774,79508,78909.820,598.180,-44.758,0,0,0,0,69.77,69.77,2,1,512,nan,4,0,24,1,1,28,28,0,0,0,1438658087,0.04321,0.00464,0.95264,0.95363,-0.00558,0.00025,-0.00114,0.00571,0.95513,0.00328,0.00660,3,12265,0,25926,0.22592,0.18645,0.82531,81,1,89.367,45,1,3,4335,195192,0,0,0.000,12.726,53.090,0,0.000,25.008,17.222,0,0,1,0,5
PPG,4,357981,14320790587,124,74781,79531,78916.031,614.969,-45.820,0,0,0,0,69.77,69.77,2,1,512,nan,4,0,24,1,1,29,29,0,0,0,1438697488,0.04224,0.00244,0.95459,0.95553,-0.00638,-0.00028,-0.00194,0.00668,0.95922,0.00369,0.00744,3,12247,0,25926,0.22592,0.18645,0.82531,81,1,89.367,45,1,3,4324,195192,0,0,0.000,12.726,53.090,0,0.000,25.008,17.222,0,0,1,0,5
PPG,4,357982,14320830587,126,74804,79558,78922.453,635.547,-39.609,0,0,0,0,69.77,69.77,2,1,512,nan,4,0,24,1,1,30,30,0,0,0,1438736818,0.04077,0.00415,0.95410,0.95498,-0.00665,-0.00135,-0.00221,0.00713,0.95498,0.00289,0.00713,3,12270,0,25926,0.22592,0.18645,0.82531,81,1,89.367,45,1,3,2639,195192,0,0,0.000,12.726,53.090,0,0.000,25.008,17.222,0,0,1,0,5
PPG,4,357983,14320870587,141,74823,79587,78929.102,657.898,-27.211,0,0,0,0,69.77,69.77,2,1,512,nan,4,0,24,1,1,31,31,0,0,0,1438778789,0.04443,0.00757,0.95557,0.95663,-0.00638,-0.00055,-0.00141,0.00656,0.95663,0.00426,0.00675,3,12246,0,25926,0.22592,0.18645,0.82531,81,1,89.367,45,1,3,4330,195192,0,0,0.000,12.726,53.090,0,0.000,25.008,17.222,0,0,1,0,5
PPG,4,357984,14320910587,133,74817,79587,78935.680,651.320,-13.359,0,0,0,0,69.77,69.77,2,1,512,nan,4,0,24,1,1,0,0,0,0,0,1438818198,0.04663,0.00342,0.95581,0.95695,-0.00612,-0.00028,-0.00194,0.00642,0.95695,0.01188,0.00644,3,12281,0,25926,0.22592,0.18645,0.82531,81,1,89.367,45,1,3,4349,195192,0,0,0.000,12.726,53.090,0,0.000,25.008,17.222,0,0,1,0,5
PPG,4,357985,14320950587,124,74792,79518,78941.500,576.500,-6.039,0,0,0,0,69.77,69.77,2,1,512,nan,4,0,24,1,1,1,1,0,0,0,1438857541,0.04419,0.00732,0.94922,0.95028,-0.00638,-0.00028,-0.00247,0.00685,0.95674,0.00589,0.00706,3,12251,0,25926,0.22592,0.18645,0.82531,81,1,89.367,45,1,3,4313,195192,0,0,0.000,12.726,53.090,0,0.000,25.008,17.222,0,0,1,0,5
PPG,4,357986,14320990587,130,74741,79423,78946.312,476.688,-5.914,0,0,0,0,69.77,69.77,2,1,512,nan,4,0,24,1,1,2,2,0,0,0,1438901093,0.04102,0.00708,0.95361,0.95452,-0.00479,-0.00028,-0.00061,0.00483,0.95698,0.00670,0.00527,3,16528,0,25926,0.22592,0.18645,0.82531,81,1,89.367,45,1,3,16456,195192,0,0,0.000,12.726,53.090,0,0.000,25.008,17.222,0,0,1,0,5
PPG,4,357987,14321030587,139,74748,79398,78950.828,447.172,-10.281,0,0,0,0,69.77,69.77,2,1,512,nan,4,0,24,1,1,3,3,0,0,0,1438937923,0.04590,0.00122,0.95776,0.95886,-0.00532,-0.00028,-0.00087,0.00540,0.96073,0.00502,0.00594,3,12230,0,25926,0.22592,0.18645,0.82531,81,1,89.367,45,1,3,4348,195192,0,0,0.000,12.726,53.090,0,0.000,25.008,17.222,0,0,1,0,5
PPG,4,357988,14321070587,124,74752,79434,78955.656,478.344,-16.688,0,0,0,0,69.77,69.77,2,1,512,nan,4,0,24,1,1,4,4,0,0,0,1438977231,0.04468,0.00317,0.95801,0.95905,-0.00612,-0.00108,-0.00167,0.00643,0.95905,0.00669,0.00643,3,12240,0,25926,0.22592,0.18645,0.82531,81,1,89.367,45,1,3,2638,195192,0,0,0.000,12.726,53.090,0,0.000,25.008,17.222,0,0,1,0,5
PPG,4,357989,14321110587,142,74750,79450,78960.602,489.398,-27.562,0,0,0,0,69.77,69.77,2,1,512,nan,4,0,24,1,1,5,5,0,0,0,1439019169,0.04321,0.00269,0.95410,0.95508,-0.00638,-0.00161,-0.00221,0.00694,0.95655,0.00280,0.00699,3,12235,0,25926,0.22592,0.18645,0.82531,81,1,89.367,45,1,3,4348,195192,0,0,0.000,12.726,53.090,0,0.000,25.008,17.222,0,0,1,0,5
PPG,4,357990,14321150587,124,74767,79470,78965.695,504.305,-37.977,0,0,0,0,69.77,69.77,2,1,512,nan,4,0,24,1,1,6,6,0,0,0,1439058530,0.04346,0.00317,0.95532,0.95632,-0.00612,-0.00081,-0.00194,0.00647,0.95938,0.01047,0.00701,3,12250,0,25926,0.22592,0.18645,0.82531,81,1,89.367,45,1,3,4339,195192,0,0,0.000,12.726,53.090,0,0.000,25.008,17.222,0,0,1,0,5
PPG,4,357991,14321190587,123,74773,79497,78971.008,525.992,-44.992,0,0,0,0,69.77,69.77,2,1,512,nan,4,0,24,1,1,7,7,0,0,0,1439097856,0.04199,0.00513,0.95703,0.95797,-0.00612,-0.00081,-0.00114,0.00628,0.96158,0.00835,0.00695,3,12283,0,25926,0.22592,0.18645,0.82531,81,1,89.367,45,1,3,4328,195192,0,0,0.000,12.726,53.090,0,0.000,25.008,17.222,0,0,1,0,5
PPG,4,357992,14321230587,124,74768,79497,78976.266,520.734,-43.391,0,0,0,0,69.77,69.77,2,1,512,nan,4,0,24,1,1,8,8,0,0,0,1439137086,0.04590,0.00659,0.95044,0.95157,-0.00665,-0.00028,-0.00114,0.00675,0.95350,0.00446,0.00675,3,12242,0,25926,0.22592,0.18645,0.82531,81,1,89.367,45,1,3,2601,195192,0,0,0.000,12.726,53.090,0,0.000,25.008,17.222,0,0,1,0,5
PPG,4,357993,14321270587,124,74768,79489,78981.391,507.609,-32.109,0,0,0,0,69.77,69.77,2,1,512,nan,4,0,24,1,1,9,9,0,0,0,1439178676,0.04297,0.00122,0.95581,0.95678,-0.00585,-0.00081,-0.00247,0.00640,0.95680,0.00356,0.00646,3,12118,0,25926,0.22592,0.18645,0.82531,81,1,89.367,45,1,3,4294,195192,0,0,0.000,12.726,53.090,0,0.000,25.008,17.222,0,0,1,0,5
PPG,4,357994,14321310587,125,74762,79492,78986.500,505.500,-17.828,1,0,0,0,69.77,69.77,2,1,512,nan,4,0,24,1,1,10,10,0,0,0,1439217725,0.04468,0.00488,0.95410,0.95516,-0.00638,-0.00001,-0.00221,0.00675,0.95987,0.00471,0.00675,3,12135,0,25926,0.22592,0.18645,0.82531,81,1,89.367,45,1,3,4298,195192,0,0,0.000,12.726,53.090,0,39.906,25.008,17.222,1,0,1,0,5
PPG,4,357995,14321350587,123,74769,79502,78991.656,510.344,-8.711,0,0,0,0,69.77,69.77,2,1,512,nan,4,0,24,1,1,11,11,0,0,0,1439256740,0.04370,0.00342,0.95410,0.95511,-0.00638,0.00025,-0.00034,0.00640,0.96299,0.01161,0.00646,3,12132,0,25926,0.22592,0.18645,0.82531,81,1,89.367,45,1,3,2604,195192,0,0,0.000,12.726,53.090,0,0.000,25.008,17.222,0,0,1,0,5
PPG,4,357996,14321390587,534,74780,79522,78996.961,525.039,-0.828,0,0,1,660,90.91,90.91,2,1,0,nan,4,1,24,1,1,12,12,0,0,0,1439298295,0.04321,0.00293,0.95459,0.95557,-0.00558,-0.00028,-0.00167,0.00584,0.95660,0.00340,0.00664,3,12130,0,25926,0.12895,0.15140,1.17411,93,1,80.647,78,1,3,4346,195192,0,0,32.031,12.726,53.090,1,0.000,25.008,17.222,0,1,1,0,6
PPG,4,357997,14321430587,173,74763,79521,79002.203,518.797,4.508,0,0,0,0,90.91,90.91,2,1,0,nan,4,1,24,1,1,13,13,0,0,0,1439337787,0.04199,0.00708,0.95166,0.95261,-0.00585,-0.00001,-0.00194,0.00616,0.95761,0.00672,0.00616,3,12120,0,25926,0.12895,0.15140,1.17411,93,1,80.647,78,1,3,4311,195192,0,0,0.000,11.754,47.588,0,0.000,23.771,15.431,0,0,1,0,6
PPG,4,357998,14321470587,134,74762,79511,79007.289,503.711,5.609,0,0,0,0,90.91,90.91,2,1,0,nan,4,1,24,1,1,14,14,0,0,0,1439376962,0.04443,0.00415,0.95801,0.95905,-0.00505,-0.00028,-0.00087,0.00513,0.95905,0.00719,0.00686,3,12269,0,25926,0.12895,0.15140,1.17411,93,1,80.647,78,1,3,2618,195192,0,0,0.000,11.754,47.588,0,0.000,23.771,15.431,0,0,1,0,6
PPG,4,357999,14321510587,124,74776,79551,79012.727,538.273,10.273,0,0,0,0,90.91,90.91,2,1,0,nan,4,1,24,1,1,15,15,0,0,0,1439418576,0.04419,0.00635,0.95386,0.95490,-0.00558,0.00025,-0.00061,0.00562,0.95931,0.00752,0.00609,3,12120,0,25926,0.12895,0.15140,1.17411,93,1,80.647,78,1,3,4300,195192,0,0,0.000,11.754,47.588,0,0.000,23.771,15.431,0,0,1,0,6
PPG,4,358000,14321550587,125,74800,79565,79018.250,546.750,18.281,0,0,0,0,90.91,90.91,2,1,0,nan,4,1,24,1,1,16,16,0,0,0,1439457527,0.03979,0.00244,0.95264,0.95347,-0.00638,-0.00001,-0.00194,0.00667,0.95347,0.00556,0.00667,3,12117,0,25926,0.12895,0.15140,1.17411,93,1,80.647,78,1,3,2599,195192,0,0,0.000,11.754,47.588,0,0.000,23.771,15.431,0,0,1,0,6
PPG,4,358001,14321590587,127,74787,79582,79023.891,558.109,28.586,0,0,0,0,90.91,90.91,2,1,0,nan,4,1,24,1,1,17,17,0,0,0,1439499130,0.04102,0.00415,0.95532,0.95621,-0.00479,0.00025,-0.00141,0.00499,0.95621,0.00258,0.00660,3,12150,0,25926,0.12895,0.15140,1.17411,93,1,80.647,78,1,3,4299,195192,0,0,0.000,11.754,47.588,0,0.000,23.771,15.431,0,0,1,0,6
PPG,4,358002,14321630587,125,74798,79603,79029.680,573.320,40.758,0,0,0,0,90.91,90.91,2,1,0,nan,4,1,24,1,1,18,18,0,0,0,1439538111,0.04199,0.00366,0.95410,0.95503,-0.00505,-0.00055,0.00019,0.00508,0.95507,0.00114,0.00642,3,12120,0,25926,0.12895,0.15140,1.17411,93,1,80.647,78,1,3,4294,195192,0,0,0.000,11.754,47.588,0,0.000,23.771,15.431,0,0,1,0,6
PPG,4,358003,14321670587,125,74785,79558,79034.961,523.039,47.359,0,0,0,0,90.91,90.91,2,1,0,nan,4,1,24,1,1,19,19,0,0,0,1439577050,0.04321,0.00269,0.95361,0.95460,-0.00638,-0.00055,-0.00061,0.00644,0.95638,0.00382,0.00673,3,12111,0,25926,0.12895,0.15140,1.17411,93,1,80.647,78,1,3,2594,195192,0,0,0.000,11.754,47.588,0,0.000,23.771,15.431,0,0,1,0,6
PPG,4,358004,14321710587,135,74762,79458,79039.188,418.812,44.812,0,0,0,0,90.91,90.91,2,1,0,nan,4,1,24,1,1,20,20,0,0,0,1439618704,0.04492,0.00244,0.95313,0.95419,-0.00585,-0.00001,-0.00007,0.00585,0.95419,0.00258,0.00585,3,12117,0,25926,0.12895,0.15140,1.17411,93,1,80.647,78,1,3,4298,195192,0,0,0.000,11.754,47.588,0,0.000,23.771,15.431,0,0,1,0,6
PPG,4,358005,14321750587,130,74748,79424,79043.039,380.961,37.078,0,1,0,0,90.91,90.91,2,1,0,nan,4,1,24,1,1,21,21,0,0,0,1439657753,0.04272,0.00342,0.95435,0.95531,-0.00665,-0.00028,-0.00114,0.00675,0.95903,0.00482,0.00675,3,12118,0,25926,0.12895,0.15140,1.17411,93,1,80.647,78,1,3,4297,195192,0,0,22.539,11.754,47.588,1,0.000,23.771,15.431,0,0,1,0,6
PPG,4,358006,14321790587,136,74735,79445,79047.062,397.938,20.836,0,0,0,0,90.91,90.91,2,1,0,nan,4,1,24,1,1,22,22,0,0,0,1439696819,0.04590,0.00366,0.95435,0.95546,-0.00612,0.00025,-0.00141,0.00628,0.95692,0.00161,0.00635,3,12160,0,25926,0.12895,0.15140,1.17411,93,1,80.647,78,1,3,2627,195192,0,0,0.000,11.754,47.588,0,0.000,23.771,15.431,0,0,1,0,6
PPG,4,358007,14321830587,125,74736,79462,79051.211,410.789,2.922,0,0,0,0,90.91,90.91,2,1,0,nan,4,1,24,1,1,23,23,0,0,0,1439738520,0.04565,0.00024,0.95313,0.95422,-0.00558,-0.00055,-0.00300,0.00637,0.95634,0.00212,0.00675,3,12115,0,25926,0.12895,0.15140,1.17411,93,1,80.647,78,1,3,4294,195192,0,0,0.000,11.754,47.588,0,0.000,23.771,15.431,0,0,1,0,6
PPG,4,358008,14321870587,125,74759,79490,79055.602,434.398,-13.023,0,0,0,0,90.91,90.91,2,1,0,nan,4,1,24,1,1,24,24,0,0,0,1439777504,0.04346,0.00122,0.95313,0.95412,-0.00558,-0.00055,-0.00034,0.00562,0.95412,0.00229,0.00623,3,12127,0,25926,0.12895,0.15140,1.17411,93,1,80.647,78,1,3,2597,195192,0,0,0.000,11.754,47.588,0,0.000,23.771,15.431,0,0,1,0,6
PPG,4,358009,14321910587,137,74756,79503,79060.078,442.922,-29.961,0,0,0,0,90.91,90.91,2,1,0,nan,4,1,24,1,1,25,25,0,0,0,1439855378,0.04272,0.00366,0.95313,0.95409,-0.00585,0.00052,-0.00087,0.00594,0.95409,0.00075,0.00594,2,60628,0,25931,0.12895,0.15140,1.17411,93,1,80.647,78,1,3,60672,195192,0,0,0.000,11.754,47.588,0,0.000,23.771,15.431,0,0,1,0,6
PPG,4,358010,14321950587,127,74767,79525,79064.727,460.273,-37.422,0,0,0,0,90.91,90.91,2,1,0,nan,4,1,24,1,1,26,26,0,0,0,1439867541,0.04468,0.00562,0.95166,0.95272,-0.00612,-0.00001,-0.00087,0.00618,0.95272,0.00136,0.00618,1,12163,0,25931,0.12895,0.15140,1.17411,93,1,80.647,78,1,3,12086,195192,0,0,0.000,11.754,47.588,0,0.000,23.771,15.431,0,0,1,0,6
PPG,4,358011,14321990587,128,74772,79510,79069.180,440.820,-30.641,1,0,0,0,90.91,90.91,2,1,0,nan,4,1,24,1,1,27,27,0,0,0,1439901215,0.04614,0.00513,0.95142,0.95255,-0.00638,0.00025,-0.00167,0.00660,0.95590,0.00335,0.00693,2,21559,0,25932,0.12895,0.15140,1.17411,93,1,80.647,78,1,3,14501,195192,0,0,0.000,11.754,47.588,0,92.352,23.771,15.431,1,0,1,0,6
PPG,4,358012,14322030587,131,74759,79511,79073.602,437.398,-18.914,0,0,0,0,90.91,90.91,2,1,0,nan,4,1,24,1,1,28,28,0,0,0,1439937655,0.04028,0.00439,0.94873,0.94960,-0.00558,-0.00001,-0.00167,0.00583,0.95695,0.00714,0.00586,3,12105,0,25932,0.12895,0.15140,1.17411,93,1,80.647,78,1,3,2601,195192,0,0,0.000,11.754,47.588,0,0.000,23.771,15.431,0,0,1,0,6
PPG,4,358013,14322070587,149,74747,79512,79077.984,434.016,-10.492,0,0,1,680,88.24,88.24,2,1,16,nan,4,1,24,1,1,29,29,0,0,0,1439979231,0.04004,0.00391,0.95532,0.95617,-0.00612,0.00025,-0.00141,0.00628,0.95630,0.00670,0.00720,3,12128,0,25932,0.12895,0.15140,1.17411,93,1,80.647,78,1,3,4298,195192,0,0,17.148,11.754,47.588,1,0.000,23.771,15.431,0,1,1,0,6
PPG,4,358014,14322110587,127,74754,79526,79082.461,443.539,-3.047,0,0,0,0,88.24,88.24,2,1,16,nan,4,1,24,1,1,30,30,0,0,0,1440018341,0.04443,0.00146,0.95459,0.95562,-0.00638,-0.00081,-0.00167,0.00665,0.95562,0.00867,0.00665,3,12162,0,25932,0.12895,0.15140,1.17411,93,1,80.647,78,1,3,4304,195192,0,0,0.000,10.811,42.247,0,0.000,23.017,14.338,0,0,1,0,6
PPG,4,358015,14322150587,125,74776,79556,79087.195,468.805,3.680,0,0,0,0,88.24,88.24,2,1,16,nan,4,1,24,1,1,31,31,0,0,0,1440057302,0.04492,0.00073,0.94971,0.95077,-0.00505,-0.00001,-0.00114,0.00518,0.95415,0.00412,0.00698,3,12128,0,25932,0.12895,0.15140,1.17411,93,1,80.647,78,1,3,2613,195192,0,0,0.000,10.811,42.247,0,0.000,23.017,14.338,0,0,1,0,6
PPG,4,358016,14322190587,127,74789,79577,79092.094,484.906,11.500,0,0,0,0,88.24,88.24,2,1,16,nan,4,1,24,1,1,0,0,0,0,0,1440098882,0.04712,0.00464,0.95044,0.95162,-0.00612,-0.00108,-0.00247,0.00669,0.96107,0.00945,0.00669,3,12129,0,25932,0.12895,0.15140,1.17411,93,1,80.647,78,1,3,4294,195192,0,0,0.000,10.811,42.247,0,0.000,23.017,14.338,0,0,1,0,6
PPG,4,358017,14322230587,125,74783,79578,79096.953,481.047,16.219,0,0,0,0,88.24,88.24,2,1,16,nan,4,1,24,1,1,1,1,0,0,0,1440137882,0.04614,0.00415,0.95386,0.95498,-0.00585,-0.00081,-0.00141,0.00607,0.95498,0.00387,0.00732,3,12121,0,25932,0.12895,0.15140,1.17411,93,1,80.647,78,1,3,4294,195192,0,0,0.000,10.811,42.247,0,0.000,23.017,14.338,0,0,1,0,6
PPG,4,358018,14322270587,127,74789,79591,79101.891,489.109,23.789,0,0,0,0,88.24,88.24,2,1,16,nan,4,1,24,1,1,2,2,0,0,0,1440176873,0.04126,0.00537,0.94702,0.94794,-0.00665,-0.00001,-0.00087,0.00671,0.96034,0.00790,0.00671,3,12127,0,25932,0.12895,0.15140,1.17411,93,1,80.647,78,1,3,2602,195192,0,0,0.000,10.811,42.247,0,0.000,23.017,14.338,0,0,1,0,6
PPG,4,358019,14322310587,125,74791,79607,79106.945,500.055,34.711,0,0,0,0,88.24,88.24,2,1,16,nan,4,1,24,1,1,3,3,0,0,0,1440218451,0.04395,0.00171,0.95459,0.95560,-0.00638,-0.00001,-0.00167,0.00660,0.95581,0.00788,0.00660,3,12144,0,25932,0.12895,0.15140,1.17411,93,1,80.647,78,1,3,4338,195192,0,0,0.000,10.811,42.247,0,0.000,23.017,14.338,0,0,1,0,6
PPG,4,358020,14322350587,128,74790,79623,79112.109,510.891,47.664,0,1,0,0,88.24,88.24,2,1,16,nan,4,1,24,1,1,4,4,0,0,0,1440257427,0.04248,0.00317,0.95117,0.95213,-0.00638,-0.00135,-0.00167,0.00674,0.95501,0.00289,0.00674,3,12117,0,25932,0.12895,0.15140,1.17411,93,1,80.647,78,1,3,2609,195192,0,0,0.000,10.811,42.247,0,0.000,23.017,14.338,0,0,1,0,6
PPG,4,358021,14322390587,519,74795,79627,79117.258,509.742,59.844,0,0,0,0,88.24,88.24,2,1,16,nan,4,1,24,1,1,5,5,0,0,0,1440298984,0.04053,0.00391,0.95313,0.95399,-0.00558,-0.00001,-0.00247,0.00611,0.95533,0.00536,0.00685,3,12115,0,25932,0.09724,0.07446,0.76578,92,1,90.856,65,1,3,4301,195192,0,0,0.000,10.811,42.247,0,0.000,23.017,14.338,0,0,1,0,6
PPG,4,358022,14322430587,175,74782,79639,79122.477,516.523,69.898,0,0,0,0,88.24,88.24,2,1,16,nan,4,1,24,1,1,6,6,0,0,0,1440338441,0.04468,0.00342,0.95044,0.95150,-0.00558,-0.00001,-0.00167,0.00583,0.95674,0.00593,0.00587,3,12143,0,25932,0.09724,0.07446,0.76578,92,1,90.856,65,1,3,4303,195192,0,0,0.000,10.811,42.247,0,0.000,23.017,14.338,0,0,1,0,6
PPG,4,358023,14322470587,140,74768,79544,79126.695,417.305,65.891,0,0,0,0,88.24,88.24,2,1,16,nan,4,1,24,1,1,7,7,0,0,0,1440377440,0.03979,0.00317,0.95386,0.95469,-0.00638,-0.00001,-0.00034,0.00639,0.95469,0.00398,0.00653,3,12111,0,25932,0.09724,0.07446,0.76578,92,1,90.856,65,1,3,2605,195192,0,0,0.000,10.811,42.247,0,0.000,23.017,14.338,0,0,1,0,6
PPG,4,358024,14322510587,127,74728,79469,79130.117,338.883,49.758,0,0,0,0,88.24,88.24,2,1,16,nan,4,1,24,1,1,8,8,0,0,0,1440419036,0.04272,0.00562,0.95483,0.95581,-0.00532,-0.00081,-0.00194,0.00572,0.95581,0.00212,0.00572,3,12150,0,25932,0.09724,0.07446,0.76578,92,1,90.856,65,1,3,4341,195192,0,0,0.000,10.811,42.247,0,0.000,23.017,14.338,0,0,1,0,6
PPG,4,358025,14322550587,125,74735,79467,79133.484,333.516,29.898,0,0,0,0,88.24,88.24,2,1,16,nan,4,1,24,1,1,9,9,0,0,0,1440458007,0.04614,0.00488,0.95410,0.95523,-0.00585,0.00025,-0.00221,0.00626,0.95523,0.00597,0.00626,3,12119,0,25932,0.09724,0.07446,0.76578,92,1,90.856,65,1,3,4299,195192,0,0,0.000,10.811,42.247,0,0.000,23.017,14.338,0,0,1,0,6
PPG,4,358026,14322590587,127,74757,79509,79137.242,371.758,12.703,0,0,0,0,88.24,88.24,2,1,16,nan,4,1,24,1,1,10,10,0,0,0,1440496959,0.04541,0.00122,0.95239,0.95348,-0.00638,-0.00081,-0.00141,0.00659,0.95800,0.00452,0.00659,3,12132,0,25932,0.09724,0.07446,0.76578,92,1,90.856,65,1,3,2599,195192,0,0,0.000,10.811,42.247,0,0.000,23.017,14.338,0,0,1,0,6
PPG,4,358027,14322630587,125,74765,79526,79141.133,384.867,-4.359,0,0,0,0,88.24,88.24,2,1,16,nan,4,1,24,1,1,11,11,0,0,0,1440538560,0.04443,0.00122,0.95557,0.95660,-0.00532,-0.00001,-0.00194,0.00566,0.95733,0.00386,0.00584,3,12123,0,25932,0.09724,0.07446,0.76578,92,1,90.856,65,1,3,4301,195192,0,0,0.000,10.811,42.247,0,0.000,23.017,14.338,0,0,1,0,6
PPG,4,358028,14322670587,126,74769,79551,79145.234,405.766,-18.258,0,0,0,0,88.24,88.24,2,1,16,nan,4,1,24,1,1,12,12,0,0,0,1440577517,0.04224,0.00342,0.94922,0.95016,-0.00505,-0.00108,-0.00114,0.00529,0.95016,0.01033,0.00586,3,12116,0,25932,0.09724,0.07446,0.76578,92,1,90.856,65,1,3,2599,195192,0,0,0.000,10.811,42.247,0,0.000,23.017,14.338,0,0,1,0,6
PPG,4,358029,14322710587,125,74783,79570,79149.484,420.516,-31.469,0,0,0,0,88.24,88.24,2,1,16,nan,4,1,24,1,1,13,13,0,0,0,1440619065,0.04565,-0.00049,0.94507,0.94617,-0.00532,0.00079,-0.00221,0.00581,0.95728,0.00711,0.00668,3,12127,0,25932,0.09724,0.07446,0.76578,92,1,90.856,65,1,3,4301,195192,0,0,0.000,10.811,42.247,0,0.000,23.017,14.338,0,0,1,0,6
PPG,4,358030,14322750587,144,74774,79572,79153.711,418.289,-29.820,1,0,1,720,88.24,88.24,2,1,16,nan,4,1,24,1,1,14,14,0,0,0,1440658033,0.04395,0.00342,0.95264,0.95366,-0.00558,-0.00055,-0.00167,0.00586,0.95693,0.01076,0.00592,3,12118,0,25932,0.09724,0.07446,0.76578,92,1,90.856,65,1,3,4297,195192,0,0,35.523,10.811,42.247,1,107.320,23.017,14.338,1,1,1,0,6
PPG,4,358031,14322790587,125,74769,79576,79157.938,418.062,-17.836,0,0,0,0,88.24,88.24,2,1,16,nan,4,1,24,1,1,15,15,0,0,0,1440697039,0.04248,0.00635,0.95483,0.95580,-0.00585,-0.00081,-0.00167,0.00614,0.95580,0.00521,0.00614,3,12122,0,25932,0.09724,0.07446,0.76578,92,1,90.856,65,1,3,2595,195192,0,0,0.000,10.101,38.223,0,0.000,22.450,13.517,0,0,1,0,6
PPG,4,358032,14322830587,130,74780,79575,79162.109,412.891,-5.609,0,0,0,0,88.24,88.24,2,1,16,nan,4,1,24,1,1,16,16,0,0,0,1440738703,0.04346,0.00562,0.95483,0.95584,-0.00612,-0.00108,-0.00114,0.00632,0.95584,0.00206,0.00632,3,12119,0,25932,0.09724,0.07446,0.76578,92,1,90.856,65,1,3,4298,195192,0,0,0.000,10.101,38.223,0,0.000,22.450,13.517,0,0,1,0,6
PPG,4,358033,14322870587,141,74752,79578,79166.266,411.734,0.953,0,0,0,0,88.24,88.24,2,1,16,nan,4,1,24,1,1,17,17,0,0,0,1440777646,0.03833,0.00269,0.95020,0.95097,-0.00585,0.00025,-0.00247,0.00636,0.95569,0.00430,0.00636,3,12109,0,25932,0.09724,0.07446,0.76578,92,1,90.856,65,1,3,2596,195192,0,0,0.000,10.101,38.223,0,0.000,22.450,13.517,0,0,1,0,6
PPG,4,358034,14322910587,132,74759,79595,79170.555,424.445,7.359,0,0,0,0,88.24,88.24,2,1,16,nan,4,1,24,1,1,18,18,0,0,0,1440819181,0.04395,0.00488,0.95532,0.95634,-0.00638,-0.00001,-0.00141,0.00654,0.95956,0.00859,0.00654,3,12108,0,25932,0.09724,0.07446,0.76578,92,1,90.856,65,1,3,4317,195192,0,0,0.000,10.101,38.223,0,0.000,22.450,13.517,0,0,1,0,6
PPG,4,358035,14322950587,128,74789,79624,79175.086,448.914,14.391,0,0,0,0,88.24,88.24,2,1,16,nan,4,1,24,1,1,19,19,0,0,0,1440858135,0.04199,0.00293,0.95898,0.95991,-0.00505,-0.00001,-0.00194,0.00541,0.95991,0.00361,0.00551,3,12105,0,25932,0.09724,0.07446,0.76578,92,1,90.856,65,1,3,4295,195192,0,0,0.000,10.101,38.223,0,0.000,22.450,13.517,0,0,1,0,6
PPG,4,358036,14322990587,133,74783,79623,79179.562,443.438,19.656,0,0,0,0,88.24,88.24,2,1,16,nan,4,1,24,1,1,20,20,0,0,0,1440901197,0.04517,0.00244,0.95093,0.95200,-0.00558,0.00105,-0.00194,0.00600,0.95326,0.00677,0.00659,3,16238,0,25932,0.09724,0.07446,0.76578,92,1,90.856,65,1,3,16174,195192,0,0,0.000,10.101,38.223,0,0.000,22.450,13.517,0,0,1,0,6
PPG,4,358037,14323030587,130,74783,79634,79184.109,449.891,25.711,0,0,0,0,88.24,88.24,2,1,16,nan,4,1,24,1,1,21,21,0,0,0,1440937787,0.04175,0.00488,0.95435,0.95527,-0.00692,-0.00081,-0.00221,0.00731,0.95527,0.00387,0.00731,3,12162,0,25932,0.09724,0.07446,0.76578,92,1,90.856,65,1,3,2614,195192,0,0,0.000,10.101,38.223,0,0.000,22.450,13.517,0,0,1,0,6
PPG,4,358038,14323070587,128,74768,79627,79188.539,438.461,31.203,0,0,0,0,88.24,88.24,2,1,16,nan,4,1,24,1,1,22,22,0,0,0,1440979381,0.04199,0.00635,0.95483,0.95578,-0.00558,-0.00108,-0.00194,0.00601,0.95578,0.00654,0.00642,3,12134,0,25932,0.09724,0.07446,0.76578,92,1,90.856,65,1,3,4296,195192,0,0,0.000,10.101,38.223,0,0.000,22.450,13.517,0,0,1,0,6
PPG,4,358039,14323110587,126,74777,79640,79193.055,446.945,38.836,0,0,0,0,88.24,88.24,2,1,16,nan,4,1,24,1,1,23,23,0,0,0,1441018375,0.04492,0.00659,0.95044,0.95152,-0.00505,-0.00081,-0.00114,0.00524,0.95612,0.00459,0.00708,3,12132,0,25932,0.09724,0.07446,0.76578,92,1,90.856,65,1,3,4295,195192,0,0,0.000,10.101,38.223,0,0.000,22.450,13.517,0,0,1,0,6
PPG,4,358040,14323150587,128,74787,79638,79197.508,440.492,46.656,0,0,0,0,88.24,88.24,2,1,16,nan,4,1,24,1,1,24,24,0,0,0,1441057366,0.04541,0.00537,0.95776,0.95885,-0.00505,-0.00081,-0.00141,0.00531,0.95885,0.00669,0.00531,3,12129,0,25932,0.09724,0.07446,0.76578,92,1,90.856,65,1,3,2606,195192,0,0,11.891,10.101,38.223,1,0.000,22.450,13.517,0,0,1,0,6
PPG,4,358041,14323190587,126,74779,79667,79202.203,464.797,54.938,0,0,0,0,88.24,88.24,2,1,16,nan,4,1,24,1,1,25,25,0,0,0,1441098950,0.04492,0.00342,0.95825,0.95931,-0.00585,-0.00081,-0.00061,0.00594,0.95931,0.00932,0.00594,3,12122,0,25932,0.09724,0.07446,0.76578,92,1,90.856,65,1,3,4310,195192,0,0,0.000,10.101,38.223,0,0.000,22.450,13.517,0,0,1,0,6
PPG,4,358042,14323230587,139,74778,79661,79206.789,454.211,59.133,0,0,0,0,88.24,88.24,2,1,16,nan,4,1,24,1,1,26,26,0,0,0,1441137991,0.04175,0.00122,0.94824,0.94916,-0.00612,-0.00001,-0.00114,0.00622,0.95383,0.00787,0.00622,3,12152,0,25932,0.09724,0.07446,0.76578,92,1,90.856,65,1,3,2600,195192,0,0,0.000,10.101,38.223,0,0.000,22.450,13.517,0,0,1,0,6
PPG,4,358043,14323270587,136,74776,79662,79211.344,450.656,58.797,0,0,0,0,88.24,88.24,2,1,16,nan,4,1,24,1,1,27,27,0,0,0,1441179599,0.04248,0.00269,0.95020,0.95115,-0.00585,-0.00081,-0.00221,0.00631,0.95723,0.00671,0.00631,3,12126,0,25932,0.09724,0.07446,0.76578,92,1,90.856,65,1,3,4295,195192,0,0,0.000,10.101,38.223,0,0.000,22.450,13.517,0,0,1,0,6
PPG,4,358044,14323310587,129,74747,79578,79215.008,362.992,45.352,0,0,0,0,88.24,88.24,2,1,16,nan,4,1,24,1,1,28,28,0,0,0,1441218580,0.04639,0.00000,0.94995,0.95108,-0.00558,0.00079,-0.00167,0.00588,0.95362,0.00425,0.00588,3,12116,0,25932,0.09724,0.07446,0.76578,92,1,90.856,65,1,3,4301,195192,0,0,0.000,10.101,38.223,0,0.000,22.450,13.517,0,0,1,0,6
PPG,4,358045,14323350587,128,74729,79503,79217.891,285.109,25.836,0,0,0,0,88.24,88.24,2,1,16,nan,4,1,24,1,1,29,29,0,0,0,1441257540,0.04370,0.00537,0.95288,0.95390,-0.00558,-0.00028,-0.00087,0.00566,0.95474,0.00360,0.00671,3,12122,0,25932,0.09724,0.07446,0.76578,92,1,90.856,65,1,3,2596,195192,0,0,0.000,10.101,38.223,0,0.000,22.450,13.517,0,0,1,0,6
PPG,4,358046,14323390587,520,74728,79507,79220.781,286.219,6.938,0,0,0,0,88.24,88.24,2,1,16,nan,4,1,24,1,1,30,30,0,0,0,1441299091,0.04150,0.00684,0.95435,0.95527,-0.00612,0.00025,-0.00087,0.00618,0.96045,0.00927,0.00675,3,12124,0,25932,0.10210,0.06158,0.60314,99,1,94.921,83,1,3,4299,195192,0,0,0.000,10.101,38.223,0,0.000,22.450,13.517,0,0,1,0,6
PPG,4,358047,14323430587,176,74715,79534,79223.914,310.086,-8.320,0,0,0,0,88.24,88.24,2,1,16,nan,4,1,24,1,1,31,31,0,0,0,1441338575,0.04565,0.00684,0.95239,0.95351,-0.00612,-0.00135,-0.00114,0.00637,0.95351,0.00495,0.00693,3,12144,0,25932,0.10210,0.06158,0.60314,99,1,94.921,83,1,3,4301,195192,0,0,0.000,10.101,38.223,0,0.000,22.450,13.517,0,0,1,0,6
PPG,4,358048,14323470587,131,74716,79551,79227.188,323.812,-24.891,0,0,0,0,88.24,88.24,2,1,16,nan,4,1,24,1,1,0,0,0,0,0,1441377609,0.04492,0.00732,0.95288,0.95397,-0.00532,-0.00161,-0.00034,0.00557,0.95544,0.00457,0.00693,3,12118,0,25932,0.10210,0.06158,0.60314,99,1,94.921,83,1,3,2598,195192,0,0,0.000,10.101,38.223,0,0.000,22.450,13.517,0,0,1,0,6
PPG,4,358049,14323510587,133,74726,79583,79230.742,352.258,-36.688,0,0,0,0,88.24,88.24,2,1,16,nan,4,1,24,1,1,1,1,0,0,0,1441419236,0.04370,0.00195,0.94922,0.95023,-0.00532,0.00052,-0.00114,0.00546,0.95470,0.00317,0.00620,3,12122,0,25932,0.10210,0.06158,0.60314,99,1,94.921,83,1,3,4298,195192,0,0,13.781,10.101,38.223,1,0.000,22.450,13.517,0,0,1,0,6
PPG,4,358050,14323550587,151,74745,79576,79234.195,341.805,-49.172,1,0,1,780,83.33,83.33,2,1,16,nan,4,1,24,1,1,2,2,0,0,0,1441458317,0.04224,0.00317,0.95215,0.95309,-0.00585,-0.00081,-0.00087,0.00597,0.95678,0.00655,0.00597,3,12125,0,25932,0.10210,0.06158,0.60314,99,1,94.921,83,1,3,4297,195192,0,0,0.000,10.101,38.223,0,90.602,22.450,13.517,1,1,1,0,6
PPG,4,358051,14323590587,130,74735,79582,79237.672,344.328,-48.898,0,0,0,0,83.33,83.33,2,1,16,nan,4,1,24,1,1,3,3,0,0,0,1441497367,0.03833,0.00366,0.95874,0.95951,-0.00638,-0.00055,-0.00087,0.00647,0.95951,0.00662,0.00647,3,12124,0,25932,0.10210,0.06158,0.60314,99,1,94.921,83,1,3,2600,195192,0,0,0.000,9.344,33.933,0,0.000,21.850,12.648,0,0,1,0,6
PPG,4,358052,14323630587,129,74717,79581,79241.102,339.898,-38.062,0,0,0,0,83.33,83.33,2,1,16,nan,4,1,24,1,1,4,4,0,0,0,1441538932,0.04224,0.00098,0.95752,0.95845,-0.00638,-0.00188,-0.00087,0.00671,0.96201,0.00445,0.00671,3,12120,0,25932,0.10210,0.06158,0.60314,99,1,94.921,83,1,3,4305,195192,0,0,0.000,9.344,33.933,0,0.000,21.850,12.648,0,0,1,0,6
PPG,4,358053,14323670587,142,74712,79590,79244.594,345.406,-26.797,0,0,0,0,83.33,83.33,2,1,16,nan,4,1,24,1,1,5,5,0,0,0,1441577962,0.04077,0.00195,0.95459,0.95546,-0.00585,-0.00108,-0.00167,0.00618,0.95546,0.01168,0.00618,3,12121,0,25932,0.10210,0.06158,0.60314,99,1,94.921,83,1,3,2596,195192,0,0,0.000,9.145,36.072,0,0.000,21.850,12.648,0,0,1,0,6
PPG,4,358054,14323710587,130,74705,79607,79248.219,358.781,-16.969,0,0,0,0,83.33,83.33,2,1,16,nan,4,1,24,1,1,6,6,0,0,0,1441619562,0.04395,0.00586,0.95605,0.95708,-0.00612,-0.00135,-0.00221,0.00664,0.95748,0.00201,0.00665,3,12122,0,25932,0.10210,0.06158,0.60314,99,1,94.921,83,1,3,4302,195192,0,0,0.000,9.145,36.072,0,0.000,21.850,12.648,0,0,1,0,6
PPG,4,358055,14323750587,129,74724,79621,79251.945,369.055,-6.820,0,0,0,0,83.33,83.33,2,1,16,nan,4,1,24,1,1,7,7,0,0,0,1441658575,0.04761,0.00269,0.95679,0.95797,-0.00532,-0.00135,-0.00167,0.00574,0.95797,0.00912,0.00710,3,12144,0,25932,0.10210,0.06158,0.60314,99,1,94.921,83,1,3,4301,195192,0,0,0.000,9.145,36.072,0,0.000,21.850,12.648,0,0,1,0,6
PPG,4,358056,14323790587,142,74678,79624,79255.664,368.336,-1.008,0,0,0,0,83.33,83.33,2,1,16,nan,4,1,24,1,1,8,8,0,0,0,1441697524,0.04297,0.00098,0.95044,0.95141,-0.00558,0.00079,-0.00274,0.00627,0.95273,0.00531,0.00695,3,12119,0,25932,0.10210,0.06158,0.60314,99,1,94.921,83,1,3,2595,195192,0,0,0.000,9.368,33.688,0,0.000,21.850,12.648,0,0,1,0,6
PPG,4,358057,14323830587,129,74683,79642,79259.531,382.469,8.008,0,0,0,0,83.33,83.33,2,1,16,nan,4,1,24,1,1,9,9,0,0,0,1441739067,0.04346,0.00439,0.96045,0.96144,-0.00638,-0.00028,-0.00087,0.00645,0.96144,0.01122,0.00662,3,12115,0,25932,0.10210,0.06158,0.60314,99,1,94.921,83,1,3,4301,195192,0,0,0.000,9.368,33.688,0,0.000,21.850,12.648,0,0,1,0,6
PPG,4,358058,14323870587,130,74692,79650,79263.438,386.562,16.578,0,0,0,0,83.33,83.33,2,1,16,nan,4,1,24,1,1,10,10,0,0,0,1441778034,0.04004,0.00293,0.95508,0.95592,-0.00558,-0.00001,-0.00007,0.00558,0.95662,0.00884,0.00662,3,12121,0,25932,0.10210,0.06158,0.60314,99,1,94.921,83,1,3,2595,195192,0,0,0.000,9.368,33.688,0,0.000,21.850,12.648,0,0,1,0,6
PPG,4,358059,14323910587,129,74686,79667,79267.477,399.523,27.508,0,0,0,0,83.33,83.33,2,1,16,nan,4,1,24,1,1,11,11,0,0,0,1441819655,0.04248,0.00488,0.95068,0.95164,-0.00532,-0.00001,-0.00221,0.00576,0.95518,0.00310,0.00728,3,12102,0,25932,0.10210,0.06158,0.60314,99,1,94.921,83,1,3,4295,195192,0,0,0.000,9.368,33.688,0,0.000,21.850,12.648,0,0,1,0,6
PPG,4,358060,14323950587,129,74719,79692,79271.719,420.281,39.391,0,0,0,0,83.33,83.33,2,1,16,nan,4,1,24,1,1,12,12,0,0,0,1441858633,0.04370,0.00464,0.95190,0.95292,-0.00718,-0.00081,-0.00061,0.00725,0.95775,0.00611,0.00725,3,12142,0,25932,0.10210,0.06158,0.60314,99,1,94.921,83,1,3,4299,195192,0,0,0.000,9.368,33.688,0,0.000,21.850,12.648,0,0,1,0,6
PPG,4,358061,14323990587,136,74713,79676,79275.758,400.242,48.789,0,0,0,0,83.33,83.33,2,1,16,nan,4,1,24,1,1,13,13,0,0,0,1441901702,0.04321,0.00269,0.95825,0.95923,-0.00505,0.00105,-0.00247,0.00572,0.95923,0.00598,0.00683,3,16232,0,25932,0.10210,0.06158,0.60314,99,1,94.921,83,1,3,16171,195192,0,0,0.000,9.368,33.688,0,0.000,21.850,12.648,0,0,1,0,6
PPG,4,358062,14324030587,134,74697,79678,79279.781,398.219,56.086,0,0,0,0,83.33,83.33,2,1,16,nan,4,1,24,1,1,14,14,0,0,0,1441938134,0.04224,-0.00146,0.95557,0.95650,-0.00612,-0.00081,-0.00114,0.00628,0.95748,0.00379,0.00628,3,12105,0,25932,0.10210,0.06158,0.60314,99,1,94.921,83,1,3,2596,195192,0,0,0.000,9.368,33.688,0,0.000,21.850,12.648,0,0,1,0,6
PPG,4,358063,14324070587,129,74681,79656,79283.547,372.453,60.961,0,0,0,0,83.33,83.33,2,1,16,nan,4,1,24,1,1,15,15,0,0,0,1441979775,0.04321,0.00488,0.96216,0.96314,-0.00585,-0.00108,-0.00141,0.00611,0.96314,0.00710,0.00640,3,12120,0,25932,0.10210,0.06158,0.60314,99,1,94.921,83,1,3,4304,195192,0,0,0.000,9.368,33.688,0,0.000,21.850,12.648,0,0,1,0,6
PPG,4,358064,14324110587,142,74689,79662,79287.328,374.672,59.609,0,0,0,0,83.33,83.33,2,1,16,nan,4,1,24,1,1,16,16,0,0,0,1442018753,0.04126,0.00366,0.95215,0.95305,-0.00532,0.00105,-0.00194,0.00576,0.95738,0.00576,0.00642,3,12118,0,25932,0.10210,0.06158,0.60314,99,1,94.921,83,1,3,4296,195192,0,0,0.000,9.368,33.688,0,0.000,21.850,12.648,0,0,1,0,6
PPG,4,358065,14324150587,139,74664,79595,79290.406,304.594,47.156,0,0,0,0,83.33,83.33,2,1,16,nan,4,1,24,1,1,17,17,0,0,0,1442057811,0.04810,0.00439,0.95410,0.95532,-0.00585,-0.00028,-0.00141,0.00602,0.95532,0.00477,0.00668,3,12162,0,25932,0.10210,0.06158,0.60314,99,1,94.921,83,1,3,2607,195192,0,0,0.000,9.368,33.688,0,0.000,21.850,12.648,0,0,1,0,6
PPG,4,358066,14324190587,130,74653,79519,79292.695,226.305,25.414,0,0,0,0,83.33,83.33,2,1,16,nan,4,1,24,1,1,18,18,0,0,0,1442099423,0.04517,0.00293,0.94849,0.94957,-0.00638,-0.00055,-0.00167,0.00662,0.95588,0.00631,0.00662,3,12121,0,25932,0.10210,0.06158,0.60314,99,1,94.921,83,1,3,4305,195192,0,0,0.000,9.368,33.688,0,0.000,21.850,12.648,0,0,1,0,6
PPG,4,358067,14324230587,129,74657,79521,79294.977,226.023,1.641,0,0,0,0,83.33,83.33,2,1,16,nan,4,1,24,1,1,19,19,0,0,0,1442138384,0.04517,0.00537,0.95947,0.96055,-0.00505,0.00025,-0.00114,0.00518,0.96055,0.00703,0.00571,3,12120,0,25932,0.10210,0.06158,0.60314,99,1,94.921,83,1,3,2602,195192,0,0,0.000,9.368,33.688,0,0.000,21.850,12.648,0,0,1,0,6
PPG,4,358068,14324270587,130,74661,79534,79297.367,236.633,-17.797,0,0,0,0,83.33,83.33,2,1,16,nan,4,1,24,1,1,20,20,0,0,0,1442179964,0.04321,0.00732,0.95190,0.95291,-0.00612,0.00052,-0.00141,0.00630,0.95315,0.00740,0.00630,3,12118,0,25932,0.10210,0.06158,0.60314,99,1,94.921,83,1,3,4303,195192,0,0,0.000,9.368,33.688,0,0.000,21.850,12.648,0,0,1,0,6
PPG,4,358069,14324310587,129,74646,79547,79299.867,247.133,-34.711,0,0,0,0,83.33,83.33,2,1,16,nan,4,1,24,1,1,21,21,0,0,0,1442218919,0.04443,0.00488,0.95190,0.95295,-0.00665,0.00079,-0.00167,0.00690,0.95349,0.00202,0.00690,3,12114,0,25932,0.10210,0.06158,0.60314,99,1,94.921,83,1,3,4308,195192,0,0,0.000,9.368,33.688,0,0.000,21.850,12.648,0,0,1,0,6
PPG,4,358070,14324350587,131,74636,79548,79302.352,245.648,-48.742,0,0,0,0,83.33,83.33,2,1,16,nan,4,1,24,1,1,22,22,0,0,0,1442257899,0.04297,0.00122,0.95166,0.95263,-0.00612,0.00025,-0.00141,0.00628,0.95516,0.00301,0.00708,3,12138,0,25932,0.10210,0.06158,0.60314,99,1,94.921,83,1,3,2595,195192,0,0,0.000,9.368,33.688,0,0.000,21.850,12.648,0,0,1,0,6
PPG,4,358071,14324390587,511,74634,79545,79304.781,240.219,-63.609,1,0,0,0,83.33,83.33,2,1,16,nan,4,1,24,1,1,23,23,0,0,0,1442299546,0.04004,0.00098,0.94434,0.94518,-0.00558,0.00025,-0.00114,0.00571,0.95830,0.01311,0.00571,3,12121,0,25932,0.08299,0.05914,0.71264,100,1,92.184,78,1,3,4299,195192,0,0,0.000,9.368,33.688,0,110.133,21.850,12.648,1,0,1,0,6
PPG,4,358072,14324430587,199,74606,79530,79307.031,222.969,-70.344,0,0,1,880,76.92,76.92,2,1,16,nan,4,1,24,1,1,24,24,0,0,0,1442338959,0.04663,0.00513,0.95166,0.95282,-0.00692,-0.00028,-0.00114,0.00702,0.95573,0.01054,0.00702,3,12120,0,25932,0.08299,0.05914,0.71264,100,1,92.184,78,1,3,4303,195192,0,0,18.094,9.368,33.688,1,0.000,21.850,12.648,0,1,1,0,6
PPG,4,358073,14324470587,130,74610,79516,79309.117,206.883,-67.070,0,0,0,0,76.92,76.92,2,1,16,nan,4,1,24,1,1,25,25,0,0,0,1442378082,0.04565,0.00488,0.95532,0.95642,-0.00585,-0.00135,-0.00194,0.00631,0.95642,0.00345,0.00669,3,12146,0,25932,0.08299,0.05914,0.71264,100,1,92.184,78,1,3,2599,195192,0,0,0.000,8.733,30.113,0,0.000,21.447,12.064,0,0,1,0,6
PPG,4,358074,14324510587,131,74622,79534,79311.367,222.633,-61.562,0,0,0,0,76.92,76.92,2,1,16,nan,4,1,24,1,1,26,26,0,0,0,1442419636,0.04272,0.00391,0.94897,0.94994,-0.00638,-0.00108,-0.00141,0.00663,0.95382,0.00532,0.00663,3,12111,0,25932,0.08299,0.05914,0.71264,100,1,92.184,78,1,3,4299,195192,0,0,0.000,8.733,30.113,0,0.000,21.447,12.064,0,0,1,0,6
PPG,4,358075,14324550587,132,74675,79590,79314.156,275.844,-52.008,0,0,0,0,76.92,76.92,2,1,16,nan,4,1,24,1,1,27,27,0,0,0,1442458625,0.04419,0.00146,0.95313,0.95415,-0.00612,-0.00108,-0.00141,0.00637,0.96021,0.01027,0.00637,3,12106,0,25932,0.08299,0.05914,0.71264,100,1,92.184,78,1,3,4318,195192,0,0,0.000,8.733,30.113,0,0.000,21.447,12.064,0,0,1,0,6
PPG,4,358076,14324590587,133,74649,79535,79316.367,218.633,-49.281,0,0,0,0,76.92,76.92,2,1,16,nan,4,1,24,1,1,28,28,0,0,0,1442497635,0.04443,-0.00098,0.94995,0.95099,-0.00452,-0.00108,-0.00167,0.00494,0.95747,0.00468,0.00566,3,12119,0,25932,0.08299,0.05914,0.71264,100,1,92.184,78,1,3,2598,195192,0,0,0.000,8.733,30.113,0,0.000,21.447,12.064,0,0,1,0,6
PPG,4,358077,14324630587,133,74653,79557,79318.773,238.227,-43.742,0,0,0,0,76.92,76.92,2,1,16,nan,4,1,24,1,1,29,29,0,0,0,1442539186,0.04175,-0.00049,0.95044,0.95136,-0.00585,0.00079,-0.00221,0.00630,0.95136,0.00115,0.00680,3,12114,0,25932,0.08299,0.05914,0.71264,100,1,92.184,78,1,3,4303,195192,0,0,0.000,8.733,30.113,0,0.000,21.447,12.064,0,0,1,0,6
PPG,4,358078,14324670587,130,74690,79630,79321.883,308.117,-30.602,0,0,0,0,76.92,76.92,2,1,16,nan,4,1,24,1,1,30,30,0,0,0,1442578183,0.04565,0.00171,0.95410,0.95519,-0.00585,-0.00081,-0.00167,0.00614,0.95766,0.00379,0.00680,3,12144,0,25932,0.08299,0.05914,0.71264,100,1,92.184,78,1,3,2608,195192,0,0,0.000,8.733,30.113,0,0.000,21.447,12.064,0,0,1,0,6
PPG,4,358079,14324710587,129,74640,79595,79324.617,270.383,-17.711,0,0,0,0,76.92,76.92,2,1,16,nan,4,1,24,1,1,31,31,0,0,0,1442619755,0.04077,-0.00122,0.95239,0.95327,-0.00558,0.00025,-0.00114,0.00571,0.95327,0.00465,0.00602,3,12120,0,25932,0.08299,0.05914,0.71264,100,1,92.184,78,1,3,4297,195192,0,0,0.000,8.733,30.113,0,0.000,21.447,12.064,0,0,1,0,6
PPG,4,358080,14324750587,130,74581,79532,79326.688,205.312,-7.430,0,0,0,0,76.92,76.92,2,1,16,nan,4,1,24,1,1,0,0,0,0,0,1442658705,0.04492,0.00635,0.94971,0.95079,-0.00612,0.00079,-0.00141,0.00633,0.95683,0.00356,0.00633,3,12120,0,25932,0.08299,0.05914,0.71264,100,1,92.184,78,1,3,4299,195192,0,0,0.000,8.733,30.113,0,0.000,21.447,12.064,0,0,1,0,6
PPG,4,358081,14324790587,143,74550,79494,79328.359,165.641,-4.039,0,0,0,0,76.92,76.92,2,1,16,nan,4,1,24,1,1,1,1,0,0,0,1442697845,0.04199,0.00757,0.95288,0.95384,-0.00638,-0.00001,-0.00114,0.00648,0.95840,0.00779,0.00668,3,12134,0,25932,0.08299,0.05914,0.71264,100,1,92.184,78,1,3,2605,195192,0,0,0.000,8.733,30.113,0,0.000,21.447,12.064,0,0,1,0,6
PPG,4,358082,14324830587,142,74544,79479,79329.867,149.133,-9.953,0,0,0,0,76.92,76.92,2,1,16,nan,4,1,24,1,1,2,2,0,0,0,1442739427,0.04468,0.00537,0.95044,0.95150,-0.00638,0.00052,-0.00087,0.00646,0.95794,0.00644,0.00651,3,12122,0,25932,0.08299,0.05914,0.71264,100,1,92.184,78,1,3,4305,195192,0,0,0.000,8.733,30.113,0,0.000,21.447,12.064,0,0,1,0,6
PPG,4,358083,14324870587,129,74515,79445,79331.016,113.984,-12.258,0,0,0,0,76.92,76.92,2,1,16,nan,4,1,24,1,1,3,3,0,0,0,1442778435,0.04102,0.00586,0.95239,0.95329,-0.00612,-0.00055,-0.00167,0.00637,0.95512,0.00408,0.00668,3,12169,0,25932,0.08299,0.05914,0.71264,100,1,92.184,78,1,3,2604,195192,0,0,0.000,8.733,30.113,0,0.000,21.447,12.064,0,0,1,0,6
PPG,4,358084,14324910587,130,74433,79364,79331.344,32.656,-24.930,0,0,0,0,76.92,76.92,2,1,16,nan,4,1,24,1,1,4,4,0,0,0,1442819984,0.04419,0.00732,0.95068,0.95174,-0.00585,-0.00108,-0.00194,0.00626,0.95713,0.00540,0.00734,3,12112,0,25932,0.08299,0.05914,0.71264,100,1,92.184,78,1,3,4301,195192,0,0,0.000,8.733,30.113,0,0.000,21.447,12.064,0,0,1,0,6
PPG,4,358085,14324950587,129,74293,79186,79329.891,-143.891,-67.906,0,0,0,0,76.92,76.92,2,1,16,nan,4,1,24,1,1,5,5,0,0,0,1442858933,0.04517,0.00342,0.95044,0.95152,-0.00558,-0.00108,-0.00087,0.00575,0.95547,0.00373,0.00669,3,12120,0,25932,0.08299,0.05914,0.71264,100,1,92.184,78,1,3,4305,195192,0,0,0.000,8.733,30.113,0,0.000,21.447,12.064,0,0,1,0,6
PPG,4,358086,14324990587,135,74052,78876,79325.352,-449.352,-138.469,0,0,0,0,76.92,76.92,2,1,16,nan,4,1,24,1,1,6,6,0,0,0,1442902070,0.04199,0.00049,0.94824,0.94917,-0.00585,0.00132,-0.00114,0.00610,0.95504,0.00551,0.00610,3,16246,0,25932,0.08299,0.05914,0.71264,100,1,92.184,78,1,3,16181,195192,0,0,0.000,8.733,30.113,0,0.000,21.447,12.064,0,0,1,0,6
PPG,4,358087,14325030587,133,73934,78711,79319.211,-608.211,-215.258,0,0,0,0,76.92,76.92,2,1,16,nan,4,1,24,1,1,7,7,0,0,0,1442938510,0.03979,0.00757,0.95532,0.95618,-0.00558,-0.00055,-0.00194,0.00594,0.95618,0.00561,0.00703,3,12115,0,25932,0.08299,0.05914,0.71264,100,1,92.184,78,1,3,2597,195192,0,0,0.000,8.733,30.113,0,0.000,21.447,12.064,0,0,1,0,6
PPG,4,358088,14325070587,132,73853,78604,79312.062,-708.062,-295.898,0,0,0,0,76.92,76.92,2,1,16,nan,4,1,24,1,1,8,8,0,0,0,1442980067,0.04199,0.00366,0.95190,0.95284,-0.00638,-0.00001,-0.00087,0.00644,0.95669,0.00582,0.00695,3,12136,0,25932,0.08299,0.05914,0.71264,100,1,92.184,78,1,3,4301,195192,0,0,28.273,8.733,30.113,1,0.000,21.447,12.064,0,0,1,0,6
PPG,4,358089,14325110587,155,73896,78652,79305.461,-653.461,-369.289,1,0,1,680,83.33,83.33,0,0,0,nan,4,1,24,1,1,9,9,0,0,0,1443019158,0.04663,0.00269,0.95190,0.95305,-0.00558,-0.00135,-0.00061,0.00578,0.95597,0.00313,0.00578,3,12111,0,25932,0.08299,0.05914,0.71264,100,1,92.184,78,1,3,4305,195192,0,0,0.000,8.733,30.113,0,66.305,21.447,12.064,1,1,2,0,6
PPG,4,358090,14325150587,131,73990,78780,79300.203,-520.203,-425.891,0,0,0,0,83.33,83.33,0,0,0,nan,4,1,24,1,1,10,10,0,0,0,1443058159,0.04224,0.00464,0.95459,0.95554,-0.00558,-0.00135,-0.00167,0.00598,0.95584,0.00364,0.00598,3,12112,0,25932,0.08299,0.05914,0.71264,100,1,92.184,78,1,3,2602,195192,0,0,0.000,8.240,27.342,0,0.000,20.820,11.156,0,0,2,0,6
PPG,4,358091,14325190587,129,74075,78902,79296.219,-394.219,-459.742,0,0,0,0,83.33,83.33,0,0,0,nan,4,1,24,1,1,11,11,0,0,0,1443099768,0.04370,0.00684,0.95288,0.95391,-0.00585,-0.00028,-0.00114,0.00597,0.95639,0.00368,0.00668,3,12120,0,25932,0.08299,0.05914,0.71264,100,1,92.184,78,1,3,4300,195192,0,0,0.000,8.240,27.342,0,0.000,20.820,11.156,0,0,2,0,6
PPG,4,358092,14325230587,130,74165,79021,79293.469,-272.469,-457.859,0,0,0,0,83.33,83.33,0,0,0,nan,4,1,24,1,1,12,12,0,0,0,1443138745,0.04199,0.00537,0.95288,0.95382,-0.00665,-0.00081,-0.00141,0.00685,0.95382,0.00247,0.00685,3,12126,0,25932,0.08299,0.05914,0.71264,100,1,92.184,78,1,3,4295,195192,0,0,0.000,8.240,27.342,0,0.000,20.820,11.156,0,0,2,0,6
PPG,4,358093,14325270587,129,74215,79064,79291.172,-227.172,-408.406,0,0,0,0,83.33,83.33,0,0,0,nan,4,1,24,1,1,13,13,0,0,0,1443177757,0.04443,0.00317,0.95117,0.95221,-0.00612,-0.00001,-0.00061,0.00615,0.95389,0.00167,0.00685,3,12150,0,25932,0.08299,0.05914,0.71264,100,1,92.184,78,1,3,2595,195192,0,0,0.000,8.240,27.342,0,0.000,20.820,11.156,0,0,2,0,6
PPG,4,358094,14325310587,131,74264,79110,79289.359,-179.359,-330.211,0,0,0,0,83.33,83.33,0,0,0,nan,4,1,24,1,1,14,14,0,0,0,1443219366,0.04053,0.00195,0.95020,0.95106,-0.00585,0.00079,-0.00194,0.00621,0.95738,0.00631,0.00625,3,12146,0,25932,0.08299,0.05914,0.71264,100,1,92.184,78,1,3,4294,195192,0,0,0.000,8.240,27.342,0,0.000,20.820,11.156,0,0,2,0,6
PPG,4,358095,14325350587,129,74307,79186,79288.328,-102.328,-226.859,0,0,0,0,83.33,83.33,0,0,0,nan,4,1,24,1,1,15,15,0,0,0,1443258317,0.03857,0.00464,0.95410,0.95489,-0.00638,-0.00108,-0.00087,0.00653,0.95489,0.00203,0.00653,3,12125,0,25932,0.08299,0.05914,0.71264,100,1,92.184,78,1,3,2618,195192,0,0,0.000,8.240,27.342,0,0.000,20.820,11.156,0,0,2,0,6
PPG,4,358096,14325390587,523,74385,79273,79288.172,-15.172,-125.047,0,0,0,0,83.33,83.33,0,0,0,nan,4,0,24,1,1,16,16,0,0,0,1443299954,0.04443,0.00586,0.95361,0.95467,-0.00612,-0.00028,-0.00141,0.00628,0.95674,0.00361,0.00660,3,12160,0,25932,0.28028,0.28773,1.02657,100,1,84.336,34,1,3,4307,195192,0,0,0.000,8.240,27.342,0,0.000,20.820,11.156,0,0,2,0,6
PPG,4,358097,14325430587,177,74507,79389,79289.180,99.820,-29.648,0,0,0,0,83.33,83.33,0,0,0,nan,4,0,24,1,1,17,17,0,0,0,1443339376,0.04248,0.00317,0.94995,0.95091,-0.00692,-0.00055,-0.00167,0.00714,0.95450,0.00359,0.00714,3,12127,0,25932,0.28028,0.28773,1.02657,100,1,84.336,34,1,3,4296,195192,0,0,0.000,8.240,27.342,0,0.000,20.820,11.156,0,0,2,0,6
PPG,4,358098,14325470587,130,74569,79483,79291.117,191.883,60.703,0,0,0,0,83.33,83.33,0,0,0,nan,4,0,24,1,1,18,18,0,0,0,1443378378,0.04175,0.00293,0.95190,0.95282,-0.00585,-0.00135,-0.00141,0.00617,0.95550,0.00398,0.00752,3,12128,0,25932,0.28028,0.28773,1.02657,100,1,84.336,34,1,3,2640,195192,0,0,0.000,8.240,27.342,0,0.000,20.820,11.156,0,0,2,0,6
PPG,4,358099,14325510587,129,74588,79502,79293.227,208.773,134.062,0,0,0,0,83.33,83.33,0,0,0,nan,4,0,24,1,1,19,19,0,0,0,1443420044,0.04077,0.00195,0.95752,0.95839,-0.00612,-0.00081,-0.00167,0.00639,0.95839,0.00537,0.00639,3,12122,0,25932,0.28028,0.28773,1.02657,100,1,84.336,34,1,3,4298,195192,0,0,0.000,8.240,27.342,0,0.000,20.820,11.156,0,0,2,0,6
PPG,4,358100,14325550587,132,74612,79517,79295.461,221.539,199.531,0,0,0,0,83.33,83.33,0,0,0,nan,4,0,24,1,1,20,20,0,0,0,1443459044,0.04077,0.00049,0.95776,0.95863,-0.00452,-0.00028,-0.00114,0.00467,0.95863,0.00632,0.00550,3,12119,0,25932,0.28028,0.28773,1.02657,100,1,84.336,34,1,3,4298,195192,0,0,0.000,8.240,27.342,0,0.000,20.820,11.156,0,0,2,0,6
PPG,4,358101,14325590587,129,74658,79554,79298.047,255.953,259.961,0,0,0,0,83.33,83.33,0,0,0,nan,4,0,24,1,1,21,21,0,0,0,1443498039,0.04126,0.00024,0.95410,0.95499,-0.00505,-0.00028,-0.00167,0.00533,0.95499,0.00590,0.00567,3,12140,0,25932,0.28028,0.28773,1.02657,100,1,84.336,34,1,3,2594,195192,0,0,0.000,8.240,27.342,0,0.000,20.820,11.156,0,0,2,0,6
PPG,4,358102,14325630587,130,74704,79605,79301.117,303.883,313.508,0,0,0,0,83.33,83.33,0,0,0,nan,4,0,24,1,1,22,22,0,0,0,1443539600,0.04028,0.00195,0.94775,0.94861,-0.00665,0.00025,0.00019,0.00666,0.95608,0.00541,0.00666,3,12121,0,25932,0.28028,0.28773,1.02657,100,1,84.336,34,1,3,4294,195192,0,0,0.000,8.240,27.342,0,0.000,20.820,11.156,0,0,2,0,6
PPG,4,358103,14325670587,132,74731,79651,79304.617,346.383,357.211,0,0,0,0,83.33,83.33,0,0,0,nan,4,0,24,1,1,23,23,0,0,0,1443578558,0.04077,0.00806,0.95483,0.95574,-0.00532,-0.00081,-0.00034,0.00539,0.95574,0.00588,0.00684,3,12123,0,25932,0.28028,0.28773,1.02657,100,1,84.336,34,1,3,2600,195192,0,0,0.000,8.240,27.342,0,0.000,20.820,11.156,0,0,2,0,6
PPG,4,358104,14325710587,134,74743,79659,79308.164,350.836,381.039,0,0,0,0,83.33,83.33,0,0,0,nan,4,0,24,1,1,24,24,0,0,0,1443620140,0.04297,0.00415,0.95068,0.95166,-0.00505,0.00025,-0.00141,0.00525,0.95846,0.00397,0.00662,3,12114,0,25932,0.28028,0.28773,1.02657,100,1,84.336,34,1,3,4294,195192,0,0,0.000,8.240,27.342,0,0.000,20.820,11.156,0,0,2,0,6
PPG,4,358105,14325750587,128,74760,79686,79311.945,374.055,385.039,0,0,0,0,83.33,83.33,0,0,0,nan,4,0,24,1,1,25,25,0,0,0,1443659092,0.04346,0.00610,0.95117,0.95218,-0.00479,-0.00001,-0.00114,0.00492,0.95435,0.00269,0.00625,3,12125,0,25932,0.28028,0.28773,1.02657,100,1,84.336,34,1,3,4305,195192,0,0,0.000,8.240,27.342,0,0.000,20.820,11.156,0,0,2,0,6
PPG,4,358106,14325790587,166,74770,79683,79315.656,367.344,370.539,0,0,0,0,83.33,nan,3,2,256,nan,4,0,24,1,1,26,26,0,0,0,1443698093,0.04395,0.00244,0.95020,0.95121,-0.00532,-0.00001,-0.00141,0.00550,0.95603,0.00598,0.00550,3,12176,0,25932,0.28028,0.28773,1.02657,100,1,84.336,34,1,4,2599,195192,0,0,0.000,8.240,27.342,0,0.000,20.820,11.156,0,0,3,4000,6
PPG,4,358107,14325830587,98,74747,79617,79318.672,298.328,0.000,0,0,0,0,0.00,nan,3,2,256,nan,4,0,24,1,1,27,27,0,0,0,1443739670,0.04224,0.00342,0.94507,0.94602,-0.00638,-0.00055,-0.00194,0.00669,0.95555,0.00771,0.00669,3,12111,0,25932,0.28028,0.28773,1.02657,100,1,84.336,34,1,4,4295,195192,0,0,0.000,0.750,3.000,0,0.000,0.750,3.000,0,0,3,3960,0
PPG,4,358108,14325870587,100,74762,79604,79321.523,282.477,0.000,0,1,0,0,0.00,nan,3,2,256,nan,4,0,24,1,1,28,28,0,0,0,1443778510,0.04321,0.00391,0.95264,0.95362,-0.00612,0.00132,-0.00061,0.00629,0.95697,0.00803,0.00646,3,12123,0,25932,0.28028,0.28773,1.02657,100,1,84.336,34,1,4,2597,195192,0,0,0.000,0.750,3.000,0,0.000,0.750,3.000,0,0,3,3920,0
PPG,4,358109,14325910587,97,74776,79628,79324.586,303.414,0.000,0,0,0,0,0.00,nan,3,2,256,nan,4,0,24,1,1,29,29,0,0,0,1443819973,0.04614,0.00269,0.95093,0.95205,-0.00532,0.00158,-0.00114,0.00566,0.95720,0.00358,0.00573,3,12120,0,25932,0.28028,0.28773,1.02657,100,1,84.336,34,1,4,4300,195192,0,0,0.000,0.750,3.000,0,0.000,0.750,3.000,0,0,3,3880,0
PPG,4,358110,14325950587,98,74851,79720,79328.539,391.461,0.000,0,0,0,0,0.00,nan,3,2,256,nan,4,0,24,1,1,30,30,0,0,0,1443858827,0.04443,0.00366,0.95044,0.95148,-0.00585,-0.00001,-0.00141,0.00602,0.95439,0.00291,0.00602,3,12125,0,25932,0.28028,0.28773,1.02657,100,1,84.336,34,1,4,2617,195192,0,0,0.000,0.750,3.000,0,0.000,0.750,3.000,0,0,3,3840,0
PPG,4,358111,14325990587,101,74906,79776,79333.016,442.984,0.000,0,0,0,0,0.00,nan,3,2,256,nan,4,0,24,1,1,31,31,0,0,0,1443904583,0.04346,0.00439,0.95947,0.96047,-0.00585,-0.00055,-0.00167,0.00611,0.96047,0.00772,0.00664,3,16449,0,25932,0.28028,0.28773,1.02657,100,1,84.336,34,1,4,16382,195192,0,0,0.000,0.750,3.000,0,0.000,0.750,3.000,0,0,3,3800,0
PPG,4,358112,14326030587,99,74908,79777,79337.453,439.547,0.000,0,0,0,0,0.00,nan,3,2,256,nan,4,0,24,1,1,0,0,0,0,0,1443940901,0.04077,0.00635,0.95093,0.95182,-0.00692,-0.00028,-0.00194,0.00719,0.95243,0.01023,0.00719,3,12127,0,25932,0.28028,0.28773,1.02657,100,1,84.336,34,1,4,4317,195192,0,0,0.000,0.750,3.000,0,0.000,0.750,3.000,0,0,3,3760,0
PPG,4,358113,14326070587,99,74905,79780,79341.875,438.125,0.000,0,0,0,0,0.00,nan,3,2,256,nan,4,0,24,1,1,1,1,0,0,0,1443979754,0.04395,0.00439,0.94946,0.95049,-0.00585,-0.00028,-0.00194,0.00617,0.95238,0.00189,0.00626,3,12119,0,25932,0.28028,0.28773,1.02657,100,1,84.336,34,1,4,4296,195192,0,0,0.000,0.750,3.000,0,0.000,0.750,3.000,0,0,3,3720,0
PPG,4,358114,14326110587,97,74883,79772,79346.180,425.820,0.000,0,0,0,0,0.00,nan,3,2,256,nan,4,0,24,1,1,2,2,0,0,0,1444018667,0.04321,0.00464,0.94751,0.94851,-0.00479,-0.00001,-0.00141,0.00499,0.95563,0.00713,0.00660,3,12141,0,25932,0.28028,0.28773,1.02657,100,1,84.336,34,1,4,2602,195192,0,0,0.000,0.750,3.000,0,0.000,0.750,3.000,0,0,3,3680,0
PPG,4,358115,14326150587,99,74861,79752,79350.234,401.766,0.000,0,0,0,0,0.00,nan,3,2,256,nan,4,0,24,1,1,3,3,0,0,0,1444060091,0.04688,0.00171,0.95142,0.95257,-0.00612,-0.00028,-0.00141,0.00628,0.95263,0.00412,0.00628,3,12124,0,25932,0.28028,0.28773,1.02657,100,1,84.336,34,1,4,4299,195192,0,0,0.000,0.750,3.000,0,0.000,0.750,3.000,0,0,3,3640,0
PPG,4,358116,14326190587,99,74824,79725,79353.984,371.016,0.000,0,0,0,0,0.00,nan,3,2,256,nan,4,0,24,1,1,4,4,0,0,0,1444098973,0.04419,0.00146,0.95581,0.95683,-0.00612,-0.00081,-0.00141,0.00633,0.95683,0.00773,0.00633,3,12125,0,25932,0.28028,0.28773,1.02657,100,1,84.336,34,1,4,4300,195192,0,0,0.000,0.750,3.000,0,0.000,0.750,3.000,0,0,3,3600,0
PPG,4,358117,14326230587,98,74828,79742,79357.867,384.133,0.000,0,0,0,0,0.00,nan,3,2,256,nan,4,0,24,1,1,5,5,0,0,0,1444137887,0.04346,0.00269,0.94458,0.94558,-0.00612,-0.00108,-0.00167,0.00643,0.95743,0.01162,0.00643,3,12124,0,25932,0.28028,0.28773,1.02657,100,1,84.336,34,1,4,2600,195192,0,0,0.000,0.750,3.000,0,0.000,0.750,3.000,0,0,3,3560,0
PPG,4,358118,14326270587,98,74816,79740,79361.688,378.312,0.000,0,0,0,0,0.00,nan,3,2,256,nan,4,0,24,1,1,6,6,0,0,0,1444179367,0.04468,0.00488,0.94702,0.94809,-0.00612,-0.00001,-0.00141,0.00628,0.95279,0.00619,0.00674,3,12136,0,25932,0.28028,0.28773,1.02657,100,1,84.336,34,1,4,4295,195192,0,0,0.000,0.750,3.000,0,0.000,0.750,3.000,0,0,3,3520,0
PPG,4,358119,14326310587,100,74787,79719,79365.258,353.742,0.000,0,0,0,0,0.00,nan,3,2,256,nan,4,0,24,1,1,7,7,0,0,0,1444218341,0.04175,0.00220,0.95264,0.95355,-0.00505,-0.00055,-0.00167,0.00535,0.95624,0.00815,0.00622,3,12161,0,25932,0.28028,0.28773,1.02657,100,1,84.336,34,1,4,2608,195192,0,0,0.000,0.750,3.000,0,0.000,0.750,3.000,0,0,3,3480,0
PPG,4,358120,14326350587,97,74776,79726,79368.867,357.133,0.000,0,0,0,0,0.00,nan,3,2,256,nan,4,0,24,1,1,8,8,0,0,0,1444259775,0.04565,0.00293,0.95166,0.95276,-0.00638,-0.00081,-0.00141,0.00659,0.95498,0.00467,0.00699,3,12120,0,25932,0.28028,0.28773,1.02657,100,1,84.336,34,1,4,4304,195192,0,0,0.000,0.750,3.000,0,0.000,0.750,3.000,0,0,3,3440,0
PPG,4,358121,14326390587,471,74775,79717,79372.352,344.648,0.000,0,0,0,0,0.00,nan,3,2,256,nan,4,1,24,1,1,9,9,0,0,0,1444298613,0.04248,0.00830,0.95557,0.95655,-0.00665,-0.00081,-0.00141,0.00685,0.95778,0.00590,0.00685,3,12109,0,25932,0.30100,0.29434,0.97787,-999,0,85.553,-999,0,4,2621,195192,0,0,0.000,0.750,3.000,0,0.000,0.750,3.000,0,0,3,3400,0
PPG,4,358122,14326430587,141,74737,79700,79375.625,324.375,0.000,0,0,0,0,0.00,nan,3,2,256,nan,4,1,24,1,1,10,10,0,0,0,1444340485,0.04590,0.00537,0.95679,0.95790,-0.00638,-0.00081,-0.00141,0.00659,0.95790,0.00507,0.00734,3,12119,0,25932,0.30100,0.29434,0.97787,-999,0,85.553,-999,0,4,4303,195192,0,0,0.000,0.750,3.000,0,0.000,0.750,3.000,0,0,3,3360,0
PPG,4,358123,14326470587,99,74791,79730,79379.172,350.828,0.000,0,0,0,0,0.00,nan,3,2,256,nan,4,1,24,1,1,11,11,0,0,0,1444379398,0.03979,0.00464,0.94604,0.94689,-0.00558,-0.00028,-0.00087,0.00566,0.95687,0.00997,0.00575,3,12128,0,25932,0.30100,0.29434,0.97787,-999,0,85.553,-999,0,4,4299,195192,0,0,0.000,0.750,3.000,0,0.000,0.750,3.000,0,0,3,3320,0
PPG,4,358124,14326510587,97,74809,79758,79382.961,375.039,0.000,0,0,0,0,0.00,nan,3,2,256,nan,4,1,24,1,1,12,12,0,0,0,1444418280,0.04224,0.00366,0.95166,0.95260,-0.00585,-0.00001,-0.00194,0.00616,0.95260,0.00443,0.00676,3,12174,0,25932,0.30100,0.29434,0.97787,-999,0,85.553,-999,0,4,2615,195192,0,0,0.000,0.750,3.000,0,0.000,0.750,3.000,0,0,3,3280,0
PPG,4,358125,14326550587,99,74790,79755,79386.680,368.320,0.000,0,0,0,0,0.00,nan,3,2,256,nan,4,1,24,1,1,13,13,0,0,0,1444459741,0.04370,0.00439,0.94824,0.94926,-0.00558,-0.00055,-0.00114,0.00573,0.95614,0.00509,0.00664,3,12124,0,25932,0.30100,0.29434,0.97787,-999,0,85.553,-999,0,4,4295,195192,0,0,0.000,0.750,3.000,0,0.000,0.750,3.000,0,0,3,3240,0
PPG,4,358126,14326590587,153,74751,79717,79389.984,327.016,6.250,0,0,0,0,0.00,nan,3,2,256,nan,4,1,24,1,1,14,14,0,0,0,1444498583,0.04150,0.00537,0.94727,0.94819,-0.00585,0.00052,-0.00194,0.00619,0.95742,0.00816,0.00619,3,12118,0,25932,0.30100,0.29434,0.97787,-999,0,85.553,-999,0,4,2606,195192,0,0,0.000,0.750,3.000,0,0.000,0.750,3.000,0,0,3,3200,0
PPG,4,358127,14326630587,119,74745,79695,79393.031,301.969,-2.078,0,0,0,0,0.00,nan,3,2,256,nan,4,1,24,1,1,15,15,0,0,0,1444540328,0.04712,0.00391,0.95386,0.95503,-0.00585,-0.00001,-0.00167,0.00609,0.95525,0.00706,0.00634,3,12132,0,25932,0.30100,0.29434,0.97787,-999,0,85.553,-999,0,4,4296,195192,0,0,0.000,0.750,3.000,0,0.000,0.750,3.000,0,0,3,3160,0
PPG,4,358128,14326670587,121,74692,79584,79394.938,189.062,-20.078,0,0,0,0,0.00,nan,3,2,256,nan,4,1,24,1,1,16,16,0,0,0,1444579214,0.04492,0.00391,0.94897,0.95005,-0.00612,0.00079,-0.00247,0.00664,0.96097,0.00872,0.00664,3,12123,0,25932,0.30100,0.29434,0.97787,-999,0,85.553,-999,0,4,4297,195192,0,0,0.000,0.750,3.000,0,0.000,0.750,3.000,0,0,3,3120,0
PPG,4,358129,14326710587,118,74673,79539,79396.375,142.625,-38.633,0,0,0,0,0.00,nan,3,2,256,nan,4,1,24,1,1,17,17,0,0,0,1444618176,0.04419,0.00415,0.95752,0.95855,-0.00665,-0.00081,-0.00247,0.00714,0.95855,0.01332,0.00735,3,12132,0,25932,0.30100,0.29434,0.97787,-999,0,85.553,-999,0,4,2602,195192,0,0,0.000,0.750,3.000,0,0.000,0.750,3.000,0,0,3,3080,0
PPG,4,358130,14326750587,117,74673,79569,79398.102,170.898,-54.078,0,0,0,0,0.00,nan,3,2,256,nan,4,1,24,1,1,18,18,0,0,0,1444659670,0.04272,0.00586,0.94604,0.94703,-0.00692,-0.00108,-0.00141,0.00714,0.95687,0.00984,0.00720,3,12110,0,25932,0.30100,0.29434,0.97787,-999,0,85.553,-999,0,4,4300,195192,0,0,0.000,0.750,3.000,0,0.000,0.750,3.000,0,0,3,3040,0
PPG,4,358131,14326790587,121,74699,79622,79400.344,221.656,-65.812,0,0,0,0,0.00,nan,3,2,256,nan,4,1,24,1,1,19,19,0,0,0,1444698559,0.04590,0.00391,0.94727,0.94838,-0.00585,-0.00028,-0.00114,0.00597,0.95611,0.00773,0.00661,3,12122,0,25932,0.30100,0.29434,0.97787,-999,0,85.553,-999,0,4,2598,195192,0,0,0.000,0.750,3.000,0,0.000,0.750,3.000,0,0,3,3000,0
PPG,4,358132,14326830587,122,74727,79642,79402.758,239.242,-75.203,0,0,0,0,0.00,nan,3,2,256,nan,4,1,24,1,1,20,20,0,0,0,1444740151,0.04395,0.00171,0.95166,0.95268,-0.00612,-0.00081,-0.00194,0.00647,0.95268,0.00226,0.00719,3,12129,0,25932,0.30100,0.29434,0.97787,-999,0,85.553,-999,0,4,4299,195192,0,0,0.000,0.750,3.000,0,0.000,0.750,3.000,0,0,3,2960,0
PPG,4,358133,14326870587,117,74707,79639,79405.117,233.883,-79.289,0,0,0,0,0.00,nan,3,2,256,nan,4,1,24,1,1,21,21,0,0,0,1444779039,0.04248,0.00757,0.95654,0.95752,-0.00558,-0.00028,-0.00114,0.00571,0.95880,0.00486,0.00665,3,12125,0,25932,0.30100,0.29434,0.97787,-999,0,85.553,-999,0,4,2599,195192,0,0,0.000,0.750,3.000,0,0.000,0.750,3.000,0,0,3,2920,0
PPG,4,358134,14326910587,128,74695,79634,79407.406,226.594,-81.109,0,0,0,0,0.00,nan,3,2,256,nan,4,1,24,1,1,22,22,0,0,0,1444858650,0.04468,0.00366,0.95654,0.95759,-0.00585,0.00132,-0.00167,0.00623,0.95830,0.00078,0.00623,2,62419,0,25937,0.30100,0.29434,0.97787,-999,0,85.553,-999,0,4,62452,195192,0,0,0.000,0.750,3.000,0,0.000,0.750,3.000,0,0,3,2880,0
PPG,4,358135,14326950587,117,74689,79622,79409.555,212.445,-69.180,0,0,0,0,0.00,nan,3,2,256,nan,4,1,24,1,1,23,23,0,0,0,1444870738,0.04419,0.00391,0.95068,0.95172,-0.00558,0.00052,-0.00167,0.00585,0.95172,0.00587,0.00585,1,12088,0,25937,0.30100,0.29434,0.97787,-999,0,85.553,-999,0,4,12018,195192,0,0,0.000,0.750,3.000,0,0.000,0.750,3.000,0,0,3,2840,0
PPG,4,358136,14326990587,120,74683,79616,79411.617,204.383,-52.727,0,0,0,0,0.00,nan,3,2,256,nan,4,1,24,1,1,24,24,0,0,0,1444904271,0.04272,0.00635,0.95190,0.95288,-0.00612,-0.00108,-0.00114,0.00632,0.95665,0.00494,0.00632,2,21498,0,25938,0.30100,0.29434,0.97787,-999,0,85.553,-999,0,4,14464,195192,0,0,0.000,0.750,3.000,0,0.000,0.750,3.000,0,0,3,2800,0
PPG,4,358137,14327030587,117,74677,79619,79413.688,205.312,-39.438,0,0,0,0,0.00,nan,3,2,256,nan,4,1,24,1,1,25,25,0,0,0,1444940683,0.04443,0.00122,0.95728,0.95831,-0.00479,-0.00001,-0.00221,0.00527,0.95831,0.00473,0.00578,3,12120,0,25938,0.30100,0.29434,0.97787,-999,0,85.553,-999,0,4,4294,195192,0,0,0.000,0.750,3.000,0,0.000,0.750,3.000,0,0,3,2760,0
PPG,4,358138,14327070587,120,74670,79629,79415.844,213.156,-32.891,0,0,0,0,0.00,nan,3,2,256,nan,4,1,24,1,1,26,26,0,0,0,1444979655,0.04297,0.00269,0.95093,0.95190,-0.00638,-0.00055,-0.00167,0.00662,0.95939,0.00736,0.00662,3,12109,0,25938,0.30100,0.29434,0.97787,-999,0,85.553,-999,0,4,4297,195192,0,0,0.000,0.750,3.000,0,0.000,0.750,3.000,0,0,3,2720,0
PPG,4,358139,14327110587,121,74660,79624,79417.922,206.078,-30.711,0,0,0,0,0.00,nan,3,2,256,nan,4,1,24,1,1,27,27,0,0,0,1445018540,0.04565,0.00537,0.95557,0.95667,-0.00638,-0.00028,-0.00247,0.00685,0.95758,0.00567,0.00685,3,12119,0,25938,0.30100,0.29434,0.97787,-999,0,85.553,-999,0,4,2610,195192,0,0,0.000,0.750,3.000,0,0.000,0.750,3.000,0,0,3,2680,0
PPG,4,358140,14327150587,119,74672,79636,79420.102,215.898,-26.641,0,0,0,0,0.00,nan,3,2,256,nan,4,1,24,1,1,28,28,0,0,0,1445060044,0.04297,0.00146,0.96021,0.96117,-0.00558,-0.00108,-0.00034,0.00570,0.96117,0.00842,0.00686,3,12120,0,25938,0.30100,0.29434,0.97787,-999,0,85.553,-999,0,4,4298,195192,0,0,0.000,0.750,3.000,0,0.000,0.750,3.000,0,0,3,2640,0
PPG,4,358141,14327190587,118,74681,79659,79422.492,236.508,-20.164,0,0,0,0,0.00,nan,3,2,256,nan,4,1,24,1,1,29,29,0,0,0,1445098917,0.03979,0.00293,0.95386,0.95469,-0.00532,0.00079,-0.00087,0.00545,0.95527,0.00590,0.00642,3,12117,0,25938,0.30100,0.29434,0.97787,-999,0,85.553,-999,0,4,2598,195192,0,0,0.000,0.750,3.000,0,0.000,0.750,3.000,0,0,3,2600,0
PPG,4,358142,14327230587,120,74693,79667,79424.938,242.062,-12.086,0,0,0,0,0.00,nan,3,2,256,nan,4,1,24,1,1,30,30,0,0,0,1445140463,0.04224,0.00757,0.95044,0.95141,-0.00585,0.00052,-0.00221,0.00627,0.95380,0.00411,0.00676,3,12142,0,25938,0.30100,0.29434,0.97787,-999,0,85.553,-999,0,4,4307,195192,0,0,0.000,0.750,3.000,0,0.000,0.750,3.000,0,0,3,2560,0
PPG,4,358143,14327270587,117,74732,79720,79427.891,292.109,3.273,0,0,0,0,0.00,nan,3,2,256,nan,4,1,24,1,1,31,31,0,0,0,1445179488,0.04492,0.00391,0.95117,0.95224,-0.00638,-0.00001,-0.00221,0.00675,0.96138,0.00914,0.00680,3,12122,0,25938,0.30100,0.29434,0.97787,-999,0,85.553,-999,0,4,4302,195192,0,0,0.000,0.750,3.000,0,0.000,0.750,3.000,0,0,3,2520,0
PPG,4,358144,14327310587,118,74750,79731,79430.922,300.078,20.617,0,0,0,0,0.00,nan,3,2,256,nan,4,1,24,1,1,0,0,0,0,0,1445218379,0.04639,0.00220,0.95898,0.96011,-0.00612,-0.00108,-0.00141,0.00637,0.96011,0.00905,0.00693,3,12127,0,25938,0.30100,0.29434,0.97787,-999,0,85.553,-999,0,4,2599,195192,0,0,0.000,0.750,3.000,0,0.000,0.750,3.000,0,0,3,2480,0
PPG,4,358145,14327350587,116,74724,79733,79433.945,299.055,36.578,0,0,0,0,0.00,nan,3,2,256,nan,4,1,24,1,1,1,1,0,0,0,1445259882,0.04321,0.00122,0.95117,0.95215,-0.00612,-0.00001,-0.00141,0.00628,0.95414,0.01178,0.00646,3,12121,0,25938,0.30100,0.29434,0.97787,-999,0,85.553,-999,0,4,4295,195192,0,0,0.000,0.750,3.000,0,0.000,0.750,3.000,0,0,3,2440,0
PPG,4,358146,14327390587,489,74726,79756,79437.164,318.836,53.492,0,1,0,0,0.00,nan,3,2,256,nan,4,1,24,1,1,2,2,0,0,0,1445298755,0.04224,0.00146,0.94824,0.94918,-0.00612,-0.00081,-0.00194,0.00647,0.95525,0.00804,0.00647,3,12118,0,25938,0.31067,0.28741,0.92514,-999,0,86.872,-999,0,4,2606,195192,0,0,0.000,0.750,3.000,0,0.000,0.750,3.000,0,0,3,2400,0
PPG,4,358147,14327430587,159,74738,79749,79440.281,308.719,66.930,0,0,0,0,0.00,nan,3,2,256,nan,4,1,24,1,1,3,3,0,0,0,1445340696,0.04297,0.00293,0.94678,0.94776,-0.00612,-0.00001,-0.00061,0.00615,0.95206,0.00317,0.00673,3,12150,0,25938,0.31067,0.28741,0.92514,-999,0,86.872,-999,0,4,4299,195192,0,0,0.000,0.750,3.000,0,0.000,0.750,3.000,0,0,3,2360,0
PPG,4,358148,14327470587,119,74711,79677,79442.648,234.352,64.852,0,0,0,0,0.00,nan,3,2,256,nan,4,1,24,1,1,4,4,0,0,0,1445379613,0.04224,0.00073,0.95679,0.95772,-0.00638,-0.00108,-0.00221,0.00684,0.95772,0.00414,0.00733,3,12109,0,25938,0.31067,0.28741,0.92514,-999,0,86.872,-999,0,4,4294,195192,0,0,0.000,0.750,3.000,0,0.000,0.750,3.000,0,0,3,2320,0
PPG,4,358149,14327510587,117,74672,79588,79444.102,143.898,51.109,0,0,0,0,0.00,nan,3,2,256,nan,4,1,24,1,1,5,5,0,0,0,1445418499,0.04492,0.00513,0.95190,0.95298,-0.00638,-0.00108,-0.00114,0.00657,0.95541,0.00736,0.00657,3,12122,0,25938,0.31067,0.28741,0.92514,-999,0,86.872,-999,0,4,2598,195192,0,0,0.000,0.750,3.000,0,0.000,0.750,3.000,0,0,3,2280,0
PPG,4,358150,14327550587,119,74643,79556,79445.219,110.781,28.336,0,0,0,0,0.00,nan,3,2,256,nan,4,1,24,1,1,6,6,0,0,0,1445459977,0.03857,0.00146,0.95581,0.95659,-0.00558,-0.00135,-0.00141,0.00591,0.95782,0.00577,0.00728,3,12109,0,25938,0.31067,0.28741,0.92514,-999,0,86.872,-999,0,4,4297,195192,0,0,0.000,0.750,3.000,0,0.000,0.750,3.000,0,0,3,2240,0
PPG,4,358151,14327590587,116,74644,79583,79446.594,136.406,9.141,0,0,0,0,0.00,nan,3,2,256,nan,4,1,24,1,1,7,7,0,0,0,1445498872,0.04395,0.00586,0.95264,0.95367,-0.00612,0.00052,-0.00141,0.00630,0.95375,0.00452,0.00630,3,12127,0,25938,0.31067,0.28741,0.92514,-999,0,86.872,-999,0,4,2610,195192,0,0,0.000,0.750,3.000,0,0.000,0.750,3.000,0,0,3,2200,0
PPG,4,358152,14327630587,118,74662,79597,79448.102,148.898,-8.039,0,0,0,0,0.00,nan,3,2,256,nan,4,1,24,1,1,8,8,0,0,0,1445540438,0.04126,0.00513,0.95776,0.95867,-0.00665,0.00079,-0.00221,0.00705,0.95867,0.00538,0.00705,3,12193,0,25938,0.31067,0.28741,0.92514,-999,0,86.872,-999,0,4,4336,195192,0,0,0.000,0.750,3.000,0,0.000,0.750,3.000,0,0,3,2160,0
PPG,4,358153,14327670587,116,74673,79618,79449.797,168.203,-26.703,0,0,0,0,0.00,nan,3,2,256,nan,4,1,24,1,1,9,9,0,0,0,1445579376,0.04419,0.00562,0.94800,0.94904,-0.00585,-0.00028,-0.00194,0.00617,0.96044,0.01139,0.00660,3,12126,0,25938,0.31067,0.28741,0.92514,-999,0,86.872,-999,0,4,4296,195192,0,0,0.000,0.750,3.000,0,0.000,0.750,3.000,0,0,3,2120,0
PPG,4,358154,14327710587,118,74683,79640,79451.695,188.305,-42.570,0,0,0,0,0.00,nan,3,2,256,nan,4,1,24,1,1,10,10,0,0,0,1445618245,0.04224,0.00073,0.94922,0.95016,-0.00692,0.00025,-0.00194,0.00719,0.95822,0.00917,0.00719,3,12122,0,25938,0.31067,0.28741,0.92514,-999,0,86.872,-999,0,4,2606,195192,0,0,0.000,0.750,3.000,0,0.000,0.750,3.000,0,0,3,2080,0
PPG,4,358155,14327750587,116,74693,79659,79453.766,205.234,-46.992,0,0,0,0,0.00,nan,3,2,256,nan,4,1,24,1,1,11,11,0,0,0,1445659768,0.04565,0.00269,0.95142,0.95251,-0.00665,-0.00055,-0.00114,0.00677,0.95384,0.00221,0.00693,3,12120,0,25938,0.31067,0.28741,0.92514,-999,0,86.872,-999,0,4,4309,195192,0,0,0.000,0.750,3.000,0,0.000,0.750,3.000,0,0,3,2040,0
PPG,4,358156,14327790587,122,74696,79652,79455.750,196.250,-39.648,0,0,0,0,0.00,nan,3,2,256,nan,4,1,24,1,1,12,12,0,0,0,1445698663,0.04248,0.00146,0.95825,0.95919,-0.00585,-0.00081,-0.00194,0.00622,0.95919,0.00393,0.00674,3,12106,0,25938,0.31067,0.28741,0.92514,-999,0,86.872,-999,0,4,2603,195192,0,0,0.000,0.750,3.000,0,0.000,0.750,3.000,0,0,3,2000,0
PPG,4,358157,14327830587,120,74679,79654,79457.734,196.266,-27.398,0,0,0,0,0.00,nan,3,2,256,nan,4,1,24,1,1,13,13,0,0,0,1445740161,0.04663,0.00342,0.95386,0.95500,-0.00638,-0.00001,-0.00114,0.00648,0.95898,0.00238,0.00754,3,12153,0,25938,0.31067,0.28741,0.92514,-999,0,86.872,-999,0,4,4317,195192,0,0,0.000,0.750,3.000,0,0.000,0.750,3.000,0,0,3,1960,0
PPG,4,358158,14327870587,119,74680,79653,79459.688,193.312,-18.602,0,0,0,0,0.00,nan,3,2,256,nan,4,1,24,1,1,14,14,0,0,0,1445779082,0.04150,0.00513,0.95654,0.95746,-0.00505,-0.00081,-0.00114,0.00524,0.95746,0.00134,0.00573,3,12123,0,25938,0.31067,0.28741,0.92514,-999,0,86.872,-999,0,4,2608,195192,0,0,0.000,0.750,3.000,0,0.000,0.750,3.000,0,0,3,1920,0
PPG,4,358159,14327910587,118,74670,79670,79461.789,208.211,-10.469,0,0,0,0,0.00,nan,3,2,256,nan,4,1,24,1,1,15,15,0,0,0,1445820672,0.04614,0.00293,0.95190,0.95303,-0.00585,-0.00001,-0.00087,0.00592,0.95943,0.00880,0.00647,3,12113,0,25938,0.31067,0.28741,0.92514,-999,0,86.872,-999,0,4,4294,195192,0,0,0.000,0.750,3.000,0,0.000,0.750,3.000,0,0,3,1880,0
PPG,4,358160,14327950587,120,74684,79688,79464.055,223.945,-3.070,0,0,0,0,0.00,nan,3,2,256,nan,4,1,24,1,1,16,16,0,0,0,1445859670,0.04102,0.00366,0.95361,0.95450,-0.00532,-0.00135,-0.00061,0.00552,0.95450,0.00130,0.00673,3,12166,0,25938,0.31067,0.28741,0.92514,-999,0,86.872,-999,0,4,4295,195192,0,0,0.000,0.750,3.000,0,0.000,0.750,3.000,0,0,3,1840,0
PPG,4,358161,14327990587,122,74708,79704,79466.453,237.547,3.820,0,0,0,0,0.00,nan,3,2,256,nan,4,1,24,1,1,17,17,0,0,0,1445905268,0.04370,0.00049,0.94702,0.94803,-0.00638,-0.00028,-0.00114,0.00649,0.95982,0.01179,0.00653,3,18848,0,25938,0.31067,0.28741,0.92514,-999,0,86.872,-999,0,4,14476,195192,0,0,0.000,0.750,3.000,0,0.000,0.750,3.000,0,0,3,1800,0
PPG,4,358162,14328030587,120,74702,79718,79468.969,249.031,9.703,0,0,0,0,0.00,nan,3,2,256,nan,4,1,24,1,1,18,18,0,0,0,1445941634,0.04126,0.00610,0.95361,0.95452,-0.00612,-0.00055,-0.00167,0.00637,0.95551,0.00552,0.00637,3,12125,0,25938,0.31067,0.28741,0.92514,-999,0,86.872,-999,0,4,4315,195192,0,0,0.000,0.750,3.000,0,0.000,0.750,3.000,0,0,3,1760,0
PPG,4,358163,14328070587,120,74700,79723,79471.508,251.492,19.688,0,0,0,0,0.00,nan,3,2,256,nan,4,1,24,1,1,19,19,0,0,0,1445980535,0.04224,0.00488,0.95166,0.95261,-0.00665,0.00025,-0.00114,0.00675,0.95744,0.00483,0.00701,3,12118,0,25938,0.31067,0.28741,0.92514,-999,0,86.872,-999,0,4,4297,195192,0,0,0.000,0.750,3.000,0,0.000,0.750,3.000,0,0,3,1720,0
PPG,4,358164,14328110587,121,74701,79724,79474.031,249.969,30.039,0,0,0,0,0.00,nan,3,2,256,nan,4,1,24,1,1,20,20,0,0,0,1446019499,0.04517,0.00269,0.95435,0.95542,-0.00505,-0.00028,-0.00167,0.00533,0.95542,0.00623,0.00602,3,12118,0,25938,0.31067,0.28741,0.92514,-999,0,86.872,-999,0,4,4309,195192,0,0,0.000,0.750,3.000,0,0.000,0.750,3.000,0,0,3,1680,0
PPG,4,358165,14328150587,119,74685,79713,79476.422,236.578,39.609,0,0,0,0,0.00,nan,3,2,256,nan,4,1,24,1,1,21,21,0,0,0,1446058439,0.04297,0.00342,0.95532,0.95629,-0.00505,-0.00028,-0.00114,0.00519,0.95792,0.00919,0.00644,3,12154,0,25938,0.31067,0.28741,0.92514,-999,0,86.872,-999,0,4,2606,195192,0,0,0.000,0.750,3.000,0,0.000,0.750,3.000,0,0,3,1640,0
PPG,4,358166,14328190587,122,74691,79727,79478.930,248.070,49.211,0,1,0,0,0.00,nan,3,2,256,nan,4,1,24,1,1,22,22,0,0,0,1446099936,0.04150,0.00146,0.95020,0.95110,-0.00532,-0.00001,-0.00194,0.00566,0.95110,0.00696,0.00630,3,12117,0,25938,0.31067,0.28741,0.92514,-999,0,86.872,-999,0,4,4302,195192,0,0,0.000,0.750,3.000,0,0.000,0.750,3.000,0,0,3,1600,0
PPG,4,358167,14328230587,120,74694,79734,79481.477,252.523,56.531,0,0,0,0,0.00,nan,3,2,256,nan,4,1,24,1,1,23,23,0,0,0,1446138832,0.04492,0.00293,0.95532,0.95638,-0.00558,0.00079,-0.00167,0.00588,0.95850,0.00857,0.00588,3,12128,0,25938,0.31067,0.28741,0.92514,-999,0,86.872,-999,0,4,2615,195192,0,0,0.000,0.750,3.000,0,0.000,0.750,3.000,0,0,3,1560,0
PPG,4,358168,14328270587,121,74686,79710,79483.766,226.234,55.742,0,0,0,0,0.00,nan,3,2,256,nan,4,1,24,1,1,24,24,0,0,0,1446180384,0.04419,0.00562,0.94897,0.95002,-0.00558,-0.00028,-0.00141,0.00577,0.95704,0.00702,0.00577,3,12140,0,25938,0.31067,0.28741,0.92514,-999,0,86.872,-999,0,4,4302,195192,0,0,0.000,0.750,3.000,0,0.000,0.750,3.000,0,0,3,1520,0
PPG,4,358169,14328310587,120,74659,79644,79485.367,158.633,42.359,0,0,0,0,0.00,nan,3,2,256,nan,4,1,24,1,1,25,25,0,0,0,1446219264,0.04517,0.00513,0.95581,0.95689,-0.00585,-0.00028,-0.00194,0.00617,0.95689,0.00499,0.00635,3,12123,0,25938,0.31067,0.28741,0.92514,-999,0,86.872,-999,0,4,2605,195192,0,0,0.000,0.750,3.000,0,0.000,0.750,3.000,0,0,3,1480,0
PPG,4,358170,14328350587,119,74653,79587,79486.383,100.617,21.391,0,0,0,0,0.00,nan,3,2,256,nan,4,1,24,1,1,26,26,0,0,0,1446260815,0.04565,0.00659,0.94678,0.94790,-0.00532,0.00052,-0.00141,0.00553,0.95529,0.00685,0.00571,3,12171,0,25938,0.31067,0.28741,0.92514,-999,0,86.872,-999,0,4,4307,195192,0,0,0.000,0.750,3.000,0,0.000,0.750,3.000,0,0,3,1440,0
PPG,4,358171,14328390587,487,74637,79587,79487.391,99.609,1.609,0,0,0,0,0.00,nan,3,2,256,nan,4,1,24,1,1,27,27,0,0,0,1446299731,0.04663,0.00488,0.94849,0.94964,-0.00612,0.00025,-0.00194,0.00642,0.96011,0.01221,0.00642,3,12129,0,25938,0.31710,0.28628,0.90281,-999,0,87.430,-999,0,4,4297,195192,0,0,0.000,0.750,3.000,0,0.000,0.750,3.000,0,0,3,1400,0
PPG,4,358172,14328430587,163,74630,79614,79488.656,125.344,-13.383,0,0,0,0,0.00,nan,3,2,256,nan,4,1,24,1,1,28,28,0,0,0,1446339010,0.04590,0.00610,0.95508,0.95620,-0.00665,-0.00135,-0.00141,0.00693,0.96099,0.00792,0.00785,3,12115,0,25938,0.31710,0.28628,0.90281,-999,0,87.430,-999,0,4,2596,195192,0,0,0.000,0.750,3.000,0,0.000,0.750,3.000,0,0,3,1360,0
PPG,4,358173,14328470587,119,74661,79656,79490.328,165.672,-25.422,0,0,0,0,0.00,nan,3,2,256,nan,4,1,24,1,1,29,29,0,0,0,1446380780,0.04395,0.00488,0.95410,0.95513,-0.00745,-0.00028,-0.00141,0.00759,0.95513,0.00271,0.00759,3,12332,0,25938,0.31710,0.28628,0.90281,-999,0,87.430,-999,0,4,4308,195192,0,0,0.000,0.750,3.000,0,0.000,0.750,3.000,0,0,3,1320,0
PPG,4,358174,14328510587,120,74666,79665,79492.078,172.922,-36.531,0,0,0,0,0.00,nan,3,2,256,nan,4,1,24,1,1,30,30,0,0,0,1446419824,0.04370,0.00464,0.95288,0.95389,-0.00612,-0.00028,-0.00087,0.00619,0.95718,0.00231,0.00680,3,12209,0,25938,0.31710,0.28628,0.90281,-999,0,87.430,-999,0,4,4318,195192,0,0,0.000,0.750,3.000,0,0.000,0.750,3.000,0,0,3,1280,0
PPG,4,358175,14328550587,120,74677,79664,79493.797,170.203,-43.352,0,0,0,0,0.00,nan,3,2,256,nan,4,1,24,1,1,31,31,0,0,0,1446458964,0.03931,0.00562,0.95313,0.95395,-0.00665,-0.00081,-0.00141,0.00685,0.95395,0.00162,0.00685,3,12279,0,25938,0.31710,0.28628,0.90281,-999,0,87.430,-999,0,4,2613,195192,0,0,0.000,0.750,3.000,0,0.000,0.750,3.000,0,0,3,1240,0
PPG,4,358176,14328590587,119,74680,79679,79495.648,183.352,-39.703,0,0,0,0,0.00,nan,3,2,256,nan,4,1,24,1,1,0,0,0,0,0,1446500851,0.04346,0.00610,0.95410,0.95511,-0.00532,0.00052,-0.00221,0.00578,0.95511,0.00155,0.00604,3,12278,0,25938,0.31710,0.28628,0.90281,-999,0,87.430,-999,0,4,4340,195192,0,0,0.000,0.750,3.000,0,0.000,0.750,3.000,0,0,3,1200,0
PPG,4,358177,14328630587,132,74684,79665,79497.344,167.656,-29.109,0,0,0,0,0.00,nan,3,2,256,nan,4,1,24,1,1,1,1,0,0,0,1446540063,0.04224,0.00269,0.95508,0.95602,-0.00532,-0.00028,-0.00194,0.00567,0.95776,0.00414,0.00656,3,12199,0,25938,0.31710,0.28628,0.90281,-999,0,87.430,-999,0,4,4330,195192,0,0,0.000,0.750,3.000,0,0.000,0.750,3.000,0,0,3,1160,0
PPG,4,358178,14328670587,134,74688,79684,79499.211,184.789,-16.797,0,0,0,0,0.00,nan,3,2,256,nan,4,1,24,1,1,2,2,0,0,0,1446579419,0.04517,0.00830,0.95483,0.95594,-0.00638,-0.00081,-0.00167,0.00665,0.95594,0.00343,0.00665,3,12294,0,25938,0.31710,0.28628,0.90281,-999,0,87.430,-999,0,4,2635,195192,0,0,0.000,0.750,3.000,0,0.000,0.750,3.000,0,0,3,1120,0
PPG,4,358179,14328710587,120,74678,79686,79501.078,184.922,-7.312,0,0,0,0,0.00,nan,3,2,256,nan,4,1,24,1,1,3,3,0,0,0,1446621342,0.04517,0.00439,0.95605,0.95713,-0.00585,-0.00081,-0.00167,0.00614,0.95713,0.00573,0.00614,3,12256,0,25938,0.31710,0.28628,0.90281,-999,0,87.430,-999,0,4,4319,195192,0,0,0.000,0.750,3.000,0,0.000,0.750,3.000,0,0,3,1080,0
PPG,4,358180,14328750587,121,74671,79675,79502.820,172.180,-3.953,0,0,0,0,0.00,nan,3,2,256,nan,4,1,24,1,1,4,4,0,0,0,1446660612,0.04443,0.00464,0.95142,0.95246,-0.00558,-0.00188,-0.00034,0.00590,0.95724,0.00451,0.00618,3,12257,0,25938,0.31710,0.28628,0.90281,-999,0,87.430,-999,0,4,4334,195192,0,0,0.000,0.750,3.000,0,0.000,0.750,3.000,0,0,3,1040,0
PPG,4,358181,14328790587,122,74653,79670,79504.492,165.508,-1.539,0,0,0,0,0.00,nan,3,2,256,nan,4,1,24,1,1,5,5,0,0,0,1446699844,0.04346,0.00635,0.95044,0.95145,-0.00638,0.00025,-0.00061,0.00642,0.95345,0.00286,0.00673,3,12223,0,25938,0.31710,0.28628,0.90281,-999,0,87.430,-999,0,4,4313,195192,0,0,0.000,0.750,3.000,0,0.000,0.750,3.000,0,0,3,1000,0
PPG,4,358182,14328830587,133,74659,79677,79506.219,170.781,2.367,0,0,0,0,0.00,nan,3,2,256,nan,4,1,24,1,1,6,6,0,0,0,1446739055,0.03809,0.00195,0.94702,0.94779,-0.00692,-0.00188,-0.00114,0.00726,0.95297,0.00413,0.00726,3,12252,0,25938,0.31710,0.28628,0.90281,-999,0,87.430,-999,0,4,2634,195192,0,0,0.000,24.887,1.479,0,0.000,0.750,3.000,0,0,3,960,0
PPG,4,358183,14328870587,124,74646,79665,79507.805,157.195,3.273,0,0,0,0,0.00,nan,3,2,256,nan,4,1,24,1,1,7,7,0,0,0,1446781072,0.04614,0.00049,0.95239,0.95351,-0.00612,-0.00028,-0.00114,0.00623,0.95939,0.00714,0.00649,3,12296,0,25938,0.31710,0.28628,0.90281,-999,0,87.430,-999,0,4,4314,195192,0,0,0.000,24.887,1.479,0,0.000,0.750,3.000,0,0,3,920,0
PPG,4,358184,14328910587,131,74646,79682,79509.547,172.453,7.797,0,0,0,0,0.00,nan,3,2,256,nan,4,1,24,1,1,8,8,0,0,0,1446820198,0.04395,0.00586,0.95093,0.95196,-0.00692,-0.00028,-0.00221,0.00727,0.95488,0.00376,0.00727,3,12240,0,25938,0.31710,0.28628,0.90281,-999,0,87.430,-999,0,4,4340,195192,0,0,0.000,24.887,1.479,0,0.000,0.750,3.000,0,0,3,880,0
PPG,4,358185,14328950587,126,74659,79690,79511.352,178.648,9.812,0,0,0,0,0.00,nan,3,2,256,nan,4,1,24,1,1,9,9,0,0,0,1446859414,0.04077,0.00562,0.95166,0.95255,-0.00585,0.00025,-0.00061,0.00589,0.95784,0.00588,0.00674,3,12249,0,25938,0.31710,0.28628,0.90281,-999,0,87.430,-999,0,4,2639,195192,0,0,0.000,24.887,1.479,0,0.000,0.750,3.000,0,0,3,840,0
PPG,4,358186,14328990587,133,74652,79686,79513.102,172.898,11.859,0,0,0,0,0.00,nan,3,2,256,nan,4,1,24,1,1,10,10,0,0,0,1446905556,0.03882,0.00366,0.95483,0.95563,-0.00532,0.00052,-0.00141,0.00553,0.96107,0.01066,0.00592,3,16349,0,25938,0.31710,0.28628,0.90281,-999,0,87.430,-999,0,4,16295,195192,0,0,0.000,24.887,1.479,0,0.000,0.750,3.000,0,0,3,800,0
PPG,4,358187,14329030587,125,74631,79691,79514.883,176.117,16.289,0,0,0,0,0.00,nan,3,2,256,nan,4,1,24,1,1,11,11,0,0,0,1446942211,0.04102,0.00513,0.95264,0.95353,-0.00638,-0.00001,-0.00141,0.00654,0.95689,0.00443,0.00654,3,12250,0,25938,0.31710,0.28628,0.90281,-999,0,87.430,-999,0,4,4330,195192,0,0,0.000,24.887,1.479,0,0.000,0.750,3.000,0,0,3,760,0
PPG,4,358188,14329070587,139,74588,79609,79515.820,93.180,12.633,0,1,0,0,0.00,nan,3,2,256,nan,4,1,24,1,1,12,12,0,0,0,1446981496,0.03955,0.00635,0.95239,0.95323,-0.00585,-0.00001,-0.00061,0.00588,0.95323,0.00770,0.00599,3,12258,0,25938,0.31710,0.28628,0.90281,-999,0,87.430,-999,0,4,4340,195192,0,0,0.000,24.887,1.479,0,0.000,13.088,12.431,0,0,3,720,0
PPG,4,358189,14329110587,120,74559,79526,79515.922,10.078,-3.039,0,0,0,0,0.00,nan,3,2,256,nan,4,1,24,1,1,13,13,0,0,0,1447020794,0.04272,0.00537,0.95264,0.95361,-0.00638,-0.00081,-0.00087,0.00649,0.95361,0.00495,0.00671,3,12258,0,25938,0.31710,0.28628,0.90281,-999,0,87.430,-999,0,4,4333,195192,0,0,0.000,24.887,1.479,0,0.000,13.088,12.431,0,0,3,680,0
PPG,4,358190,14329150587,123,74559,79520,79515.961,4.039,-20.406,0,0,0,0,0.00,nan,3,2,256,nan,4,1,24,1,1,14,14,0,0,0,1447060028,0.04395,0.00317,0.95752,0.95853,-0.00638,-0.00028,-0.00114,0.00649,0.95853,0.00732,0.00713,3,12278,0,25938,0.31710,0.28628,0.90281,-999,0,87.430,-999,0,4,4302,195192,0,0,0.000,24.887,1.479,0,0.000,13.088,12.431,0,0,3,640,0
PPG,4,358191,14329190587,119,74567,79526,79516.062,9.938,-39.641,0,0,0,0,0.00,nan,3,2,256,nan,4,1,24,1,1,15,15,0,0,0,1447099054,0.04370,0.00317,0.94995,0.95096,-0.00638,-0.00028,-0.00114,0.00649,0.95950,0.00964,0.00739,3,12214,0,25938,0.31710,0.28628,0.90281,-999,0,87.430,-999,0,4,2599,195192,0,0,0.000,24.887,1.479,0,0.000,13.088,12.431,0,0,3,600,0
PPG,4,358192,14329230587,122,74567,79555,79516.453,38.547,-55.977,0,0,0,0,0.00,nan,3,2,256,nan,4,1,24,1,1,16,16,0,0,0,1447140741,0.04370,0.00977,0.95068,0.95174,-0.00612,-0.00001,-0.00141,0.00628,0.95532,0.00358,0.00628,3,12165,0,25938,0.31710,0.28628,0.90281,-999,0,87.430,-999,0,4,4294,195192,0,0,0.000,24.887,1.479,0,0.000,13.088,12.431,0,0,3,560,0
PPG,4,358193,14329270587,118,74600,79573,79517.016,55.984,-67.969,0,0,0,0,0.00,nan,3,2,256,nan,4,1,24,1,1,17,17,0,0,0,1447179699,0.04370,0.00610,0.95386,0.95488,-0.00745,-0.00001,-0.00167,0.00764,0.95488,0.00284,0.00764,3,12174,0,25938,0.31710,0.28628,0.90281,-999,0,87.430,-999,0,4,2595,195192,0,0,0.000,24.887,1.479,0,0.000,13.088,12.431,0,0,3,520,0
PPG,4,358194,14329310587,124,74607,79607,79517.914,89.086,-77.070,0,0,0,0,0.00,nan,3,2,256,nan,4,1,24,1,1,18,18,0,0,0,1447221243,0.04468,0.00513,0.95068,0.95175,-0.00612,-0.00055,-0.00114,0.00625,0.95776,0.00602,0.00649,3,12119,0,25938,0.31710,0.28628,0.90281,-999,0,87.430,-999,0,4,4300,195192,0,0,0.000,24.887,1.479,0,0.000,13.088,12.431,0,0,3,480,0
PPG,4,358195,14329350587,119,74608,79594,79518.672,75.328,-75.711,0,0,0,0,0.00,nan,3,2,256,nan,4,1,24,1,1,19,19,0,0,0,1447260129,0.04224,0.00366,0.94922,0.95016,-0.00585,-0.00055,-0.00221,0.00628,0.95197,0.00554,0.00654,3,12110,0,25938,0.31710,0.28628,0.90281,-999,0,87.430,-999,0,4,4296,195192,0,0,0.000,24.887,1.479,0,0.000,13.088,12.431,0,0,3,440,0
PPG,4,358196,14329390587,508,74592,79575,79519.234,55.766,-63.508,0,0,0,0,0.00,nan,3,2,256,nan,4,1,24,1,1,20,20,0,0,0,1447299126,0.04272,0.00439,0.95068,0.95165,-0.00532,0.00052,-0.00061,0.00538,0.95727,0.00711,0.00667,3,12108,0,25938,0.09154,0.10336,1.12911,96,1,81.772,100,1,4,2595,195192,0,0,0.000,24.887,1.479,0,0.000,13.088,12.431,0,0,3,400,0
PPG,4,358197,14329430587,162,74580,79596,79520.000,76.000,-49.211,0,0,0,0,0.00,nan,3,2,256,nan,4,1,24,1,1,21,21,0,0,0,1447341089,0.03687,0.00684,0.95264,0.95337,-0.00612,0.00025,-0.00087,0.00618,0.95481,0.00418,0.00618,3,12133,0,25938,0.09154,0.10336,1.12911,96,1,81.772,100,1,4,4301,195192,0,0,0.000,24.887,1.479,0,0.000,13.088,12.431,0,0,3,360,0
