type,session_id,sample_index,sample_time_us,processing_time_us,red_raw,ir_raw,ir_dc,ir_ac,ir_filtered,peak_custom,peak_sparkfun,peak_accepted,ibi_ms,bpm_instant,bpm_robust,hr_status,ppg_quality,ppg_quality_flags,spo2_result,spo2_status,spo2_quality,led_amplitude,sparkfun_check_count,sparkfun_available,hw_fifo_read_ptr,hw_fifo_write_ptr,hw_fifo_overflow,suspected_drops,missing_samples,mpu_time_us,ax_g,ay_g,az_g,acc_mag_g,gx_rad_s,gy_rad_s,gz_rad_s,gyro_mag_rad_s,mpu_window_peak_g,mpu_window_delta_g,mpu_window_gyro_rad_s,mpu_window_samples,mpu_dt_us,mpu_saturated,mpu_missed_deadlines,ppg_mod_ir_pct,ppg_mod_red_pct,ppg_ratio_r,spo2_maxim,spo2_maxim_valid,spo2_custom_candidate,maxim_hr,maxim_hr_valid,measurement_state,loop_last_us,loop_max_us,display_render_us,i2c_failures,red_prominence,red_threshold,red_snr,red_candidate,ir_prominence,ir_threshold,ir_snr,ir_candidate,peak_fused,detector_state,quarantine_remaining_ms,synchronized_count
PPG,1,1415,58150587,120,75057,79807,79403.211,403.789,140.961,0,0,0,0,76.92,76.92,2,1,0,nan,4,1,24,1,1,7,7,0,0,0,58162434,0.03638,-0.00537,0.95630,0.95701,-0.00718,0.00105,-0.00114,0.00735,0.96260,0.00410,0.00735,3,12118,0,104,0.34925,0.29554,0.84621,100,1,88.845,136,1,3,4298,194960,0,0,0.000,16.018,12.374,0,0.000,38.602,15.687,0,0,1,0,2
PPG,1,1416,58190587,514,75032,79703,79406.211,296.789,144.109,0,0,0,0,76.92,76.92,2,1,0,nan,4,1,24,1,1,8,8,0,0,0,58201446,0.03589,-0.00439,0.95996,0.96064,-0.00798,-0.00028,-0.00141,0.00811,0.96064,0.00640,0.00811,3,12121,0,104,0.36172,0.13775,0.38081,100,1,100.480,136,1,3,2599,194960,0,0,17.484,16.018,12.374,1,0.000,38.602,15.687,0,0,1,0,2
PPG,1,1417,58230587,175,74936,79454,79406.688,47.312,108.328,0,0,0,0,76.92,76.92,2,1,0,nan,4,1,24,1,1,9,9,0,0,0,58243444,0.03613,-0.00049,0.95313,0.95381,-0.00745,0.00132,-0.00141,0.00769,0.95381,0.00705,0.00830,3,12129,0,104,0.36172,0.13775,0.38081,100,1,100.480,136,1,3,4300,194960,0,0,0.000,16.018,12.374,0,0.000,38.602,15.687,0,0,1,0,2
PPG,1,1418,58270587,122,74914,79358,79406.203,-48.203,53.758,0,0,0,0,76.92,76.92,2,1,0,nan,4,1,24,1,1,10,10,0,0,0,58282607,0.03491,-0.00684,0.95801,0.95867,-0.00825,0.00238,-0.00114,0.00866,0.95867,0.00356,0.00866,3,12173,0,104,0.36172,0.13775,0.38081,100,1,100.480,136,1,3,4298,194960,0,0,0.000,16.018,12.374,0,0.000,38.602,15.687,0,0,1,0,2
PPG,1,1419,58310587,125,74913,79386,79406.000,-20.000,2.164,0,0,0,0,76.92,76.92,2,1,0,nan,4,1,24,1,1,11,11,0,0,0,58330879,0.03687,-0.00317,0.95923,0.95994,-0.00612,-0.00001,-0.00114,0.00622,0.95994,0.00179,0.00827,3,21432,0,105,0.36172,0.13775,0.38081,100,1,100.480,136,1,3,14464,194960,0,0,0.000,16.018,12.374,0,0.000,38.602,15.687,0,0,1,0,2
PPG,1,1420,58350587,124,74930,79457,79406.508,50.492,-40.914,0,0,0,0,76.92,76.92,2,1,0,nan,4,1,24,1,1,12,12,0,0,0,58367292,0.03662,-0.00391,0.96143,0.96213,-0.00745,0.00212,-0.00167,0.00792,0.96213,0.00366,0.00792,3,12121,0,105,0.36172,0.13775,0.38081,100,1,100.480,136,1,3,2589,194960,0,0,0.000,16.018,12.374,0,0.000,38.602,15.687,0,0,1,0,2
PPG,1,1421,58390587,120,74961,79544,79407.883,136.117,-77.789,0,0,0,0,76.92,76.92,2,1,0,nan,4,1,24,1,1,13,13,0,0,0,58403682,0.03564,-0.00391,0.95898,0.95965,-0.00772,0.00158,-0.00141,0.00800,0.96138,0.00775,0.00800,3,12113,0,105,0.36172,0.13775,0.38081,100,1,100.480,136,1,3,4305,194960,0,0,0.000,16.018,12.374,0,0.000,38.602,15.687,0,0,1,0,2
PPG,1,1422,58430587,121,74978,79590,79409.703,180.297,-110.539,0,0,0,0,76.92,76.92,2,1,0,nan,4,1,24,1,1,14,14,0,0,0,58442645,0.03491,-0.00537,0.95728,0.95793,-0.00665,0.00265,-0.00114,0.00725,0.95841,0.00459,0.00758,3,12118,0,105,0.36172,0.13775,0.38081,100,1,100.480,136,1,3,4296,194960,0,0,0.000,16.018,12.374,0,0.000,38.602,15.687,0,0,1,0,2
PPG,1,1423,58470587,163,74969,79580,79411.406,168.594,-128.562,0,0,0,0,76.92,76.92,2,1,0,nan,4,1,24,1,1,15,15,0,0,0,58481620,0.03516,-0.00195,0.95654,0.95719,-0.00718,0.00318,-0.00141,0.00798,0.96114,0.00639,0.00863,3,12161,0,105,0.36172,0.13775,0.38081,100,1,100.480,136,1,3,2603,194960,0,0,0.000,16.018,12.374,0,0.000,38.602,15.687,0,0,1,0,2
PPG,1,1424,58510587,147,74957,79547,79412.766,134.234,-114.727,1,0,1,840,71.43,71.43,2,1,0,nan,4,1,24,1,1,16,16,0,0,0,58523689,0.04126,-0.00049,0.95557,0.95646,-0.00772,0.00158,-0.00087,0.00793,0.96389,0.00680,0.00793,3,12120,0,105,0.36172,0.13775,0.38081,100,1,100.480,136,1,3,4301,194960,0,0,29.797,16.018,12.374,1,224.570,38.602,15.687,1,1,1,0,3
PPG,1,1425,58550587,120,74956,79548,79414.117,133.883,-87.086,0,0,0,0,71.43,71.43,2,1,0,nan,4,1,24,1,1,17,17,0,0,0,58562838,0.03931,-0.00122,0.95581,0.95662,-0.00718,0.00212,-0.00114,0.00758,0.95766,0.00164,0.00825,3,12113,0,105,0.36172,0.13775,0.38081,100,1,100.480,136,1,3,4324,194960,0,0,0.000,15.414,11.192,0,0.000,37.824,14.987,0,0,1,0,3
PPG,1,1426,58590587,124,74985,79607,79416.047,190.953,-55.359,0,0,0,0,71.43,71.43,2,1,0,nan,4,1,24,1,1,18,18,0,0,0,58601865,0.03564,-0.00098,0.95898,0.95965,-0.00665,0.00158,-0.00167,0.00704,0.95965,0.00207,0.00731,3,12190,0,105,0.36172,0.13775,0.38081,100,1,100.480,136,1,3,2600,194960,0,0,0.000,15.414,11.192,0,0.000,37.824,14.987,0,0,1,0,3
PPG,1,1427,58630587,123,74994,79629,79418.180,210.820,-29.594,0,0,0,0,71.43,71.43,2,1,0,nan,4,1,24,1,1,19,19,0,0,0,58643425,0.03320,-0.00366,0.95630,0.95688,-0.00825,0.00105,-0.00194,0.00854,0.96010,0.00555,0.00854,3,12117,0,105,0.36172,0.13775,0.38081,100,1,100.480,136,1,3,4392,194960,0,0,0.000,15.414,11.192,0,0.000,37.824,14.987,0,0,1,0,3
PPG,1,1428,58670587,201,75002,79667,79420.664,246.336,-13.469,0,0,0,0,71.43,71.43,2,1,0,nan,4,1,24,1,1,20,20,0,0,0,58682708,0.03564,-0.00122,0.95581,0.95648,-0.00798,0.00238,-0.00114,0.00841,0.96166,0.00477,0.00841,3,12282,0,105,0.36172,0.13775,0.38081,100,1,100.480,136,1,3,4340,194960,0,0,0.000,15.414,11.192,0,0.000,37.824,14.987,0,0,1,0,3
PPG,1,1429,58710587,166,75010,79703,79423.484,279.516,-0.180,0,0,0,0,71.43,71.43,2,1,0,nan,4,1,24,1,1,21,21,0,0,0,58722244,0.04150,-0.00146,0.96118,0.96208,-0.00692,-0.00001,-0.00114,0.00701,0.96208,0.00315,0.00749,3,12256,0,105,0.36172,0.13775,0.38081,100,1,100.480,136,1,3,2628,194960,0,0,0.000,15.414,11.192,0,0.000,37.824,14.987,0,0,1,0,3
PPG,1,1430,58750587,125,74999,79734,79426.586,307.414,18.820,0,0,0,0,71.43,71.43,2,1,0,nan,4,1,24,1,1,22,22,0,0,0,58764320,0.03882,-0.00610,0.95947,0.96028,-0.00718,0.00158,-0.00141,0.00749,0.96131,0.00953,0.00761,3,12265,0,105,0.36172,0.13775,0.38081,100,1,100.480,136,1,3,4340,194960,0,0,0.000,15.414,11.192,0,0.000,37.824,14.987,0,0,1,0,3
PPG,1,1431,58790587,123,75006,79730,79429.617,300.383,44.414,0,0,0,0,71.43,71.43,2,1,0,nan,4,1,24,1,1,23,23,0,0,0,58803650,0.03979,-0.00610,0.95117,0.95202,-0.00798,0.00132,-0.00114,0.00817,0.96155,0.00952,0.00817,3,12298,0,105,0.36172,0.13775,0.38081,100,1,100.480,136,1,3,4347,194960,0,0,0.000,15.414,11.192,0,0.000,37.824,14.987,0,0,1,0,3
PPG,1,1432,58830587,137,75002,79735,79432.672,302.328,70.883,0,0,0,0,71.43,71.43,2,1,0,nan,4,1,24,1,1,24,24,0,0,0,58842985,0.03760,-0.00732,0.95654,0.95731,-0.00745,0.00105,0.00099,0.00759,0.96206,0.00773,0.00759,3,12235,0,105,0.36172,0.13775,0.38081,100,1,100.480,136,1,3,4333,194960,0,0,0.000,15.414,11.192,0,0.000,37.824,14.987,0,0,1,0,3
PPG,1,1433,58870587,130,74984,79746,79435.805,310.195,90.789,0,0,0,0,71.43,71.43,2,1,0,nan,4,1,24,1,1,25,25,0,0,0,58882285,0.03882,-0.00854,0.95923,0.96005,-0.00692,0.00265,-0.00034,0.00742,0.96450,0.00914,0.00742,3,12255,0,105,0.36172,0.13775,0.38081,100,1,100.480,136,1,3,2653,194960,0,0,0.000,15.414,11.192,0,0.000,37.824,14.987,0,0,1,0,3
PPG,1,1434,58910587,124,74993,79761,79439.055,321.945,110.844,0,0,0,0,71.43,71.43,2,1,0,nan,4,1,24,1,1,26,26,0,0,0,58924244,0.03760,-0.00415,0.95654,0.95729,-0.00612,0.00132,-0.00114,0.00636,0.96032,0.00634,0.00681,3,12243,0,105,0.36172,0.13775,0.38081,100,1,100.480,136,1,3,4332,194960,0,0,0.000,15.414,11.192,0,0.000,37.824,14.987,0,0,1,0,3
PPG,1,1435,58950587,131,74993,79772,79442.383,329.617,127.594,0,0,0,0,71.43,71.43,2,1,0,nan,4,1,24,1,1,27,27,0,0,0,58963545,0.03760,-0.00122,0.95825,0.95899,-0.00825,0.00105,-0.00114,0.00839,0.95899,0.00442,0.00839,3,12265,0,105,0.36172,0.13775,0.38081,100,1,100.480,136,1,3,4327,194960,0,0,0.000,15.414,11.192,0,0.000,37.824,14.987,0,0,1,0,3
PPG,1,1436,58990587,141,74942,79629,79444.250,184.750,120.719,0,0,0,0,71.43,71.43,2,1,0,nan,4,1,24,1,1,28,28,0,0,0,59002889,0.03516,0.00122,0.96021,0.96085,-0.00772,0.00025,-0.00114,0.00780,0.96085,0.00705,0.00810,3,12278,0,105,0.36172,0.13775,0.38081,100,1,100.480,136,1,3,4342,194960,0,0,0.000,15.414,11.192,0,0.000,37.824,14.987,0,0,1,0,3
PPG,1,1437,59030587,123,74859,79401,79443.820,-42.820,75.797,0,0,0,0,71.43,71.43,2,1,0,nan,4,1,24,1,1,29,29,0,0,0,59042163,0.03516,-0.00317,0.95850,0.95915,-0.00692,0.00185,-0.00167,0.00735,0.95915,0.00651,0.00873,3,12248,0,105,0.36172,0.13775,0.38081,100,1,100.480,136,1,3,2635,194960,0,0,0.000,15.414,11.192,0,0.000,37.824,14.987,0,0,1,0,3
PPG,1,1438,59070587,133,74836,79335,79442.734,-107.734,20.523,0,0,0,0,71.43,71.43,2,1,0,nan,4,1,24,1,1,30,30,0,0,0,59084084,0.03662,-0.00098,0.95679,0.95749,-0.00825,0.00212,-0.00194,0.00873,0.95916,0.00085,0.00883,3,12254,0,105,0.36172,0.13775,0.38081,100,1,100.480,136,1,3,4348,194960,0,0,0.000,15.414,11.192,0,0.000,37.824,14.987,0,0,1,0,3
PPG,1,1439,59110587,124,74854,79389,79442.195,-53.195,-29.062,0,0,0,0,71.43,71.43,2,1,0,nan,4,1,24,1,1,31,31,0,0,0,59123346,0.04126,-0.00244,0.95850,0.95939,-0.00692,0.00158,-0.00087,0.00715,0.96255,0.00826,0.00874,3,12217,0,105,0.36172,0.13775,0.38081,100,1,100.480,136,1,3,4332,194960,0,0,0.000,15.414,11.192,0,0.000,37.824,14.987,0,0,1,0,3
PPG,1,1440,59150587,126,74867,79477,79442.547,34.453,-68.492,0,0,0,0,71.43,71.43,2,1,0,nan,4,1,24,1,1,0,0,0,0,0,59162633,0.03760,-0.00171,0.95972,0.96045,-0.00825,0.00132,-0.00114,0.00843,0.96119,0.00390,0.00843,3,12213,0,105,0.36172,0.13775,0.38081,100,1,100.480,136,1,3,2634,194960,0,0,0.000,15.414,11.192,0,0.000,37.824,14.987,0,0,1,0,3
PPG,1,1441,59190587,511,74900,79545,79443.570,101.430,-99.391,0,0,0,0,71.43,71.43,2,1,0,nan,4,1,24,1,1,1,1,0,0,0,59204568,0.03662,-0.00488,0.95728,0.95799,-0.00772,0.00105,-0.00141,0.00791,0.95799,0.00316,0.00896,3,12284,0,105,0.36483,0.08843,0.24239,98,1,nan,37,1,3,4338,194960,0,0,0.000,15.414,11.192,0,0.000,37.824,14.987,0,0,1,0,3
PPG,1,1442,59230587,179,74901,79589,79445.023,143.977,-125.492,0,0,0,0,71.43,71.43,2,1,0,nan,4,1,24,1,1,2,2,0,0,0,59244197,0.04126,-0.00415,0.95337,0.95427,-0.00798,0.00158,-0.00061,0.00816,0.95480,0.00319,0.00816,3,12225,0,105,0.36483,0.08843,0.24239,98,1,nan,37,1,3,4337,194960,0,0,0.000,15.414,11.192,0,0.000,37.824,14.987,0,0,1,0,3
PPG,1,1443,59270587,143,74914,79576,79446.336,129.664,-132.859,1,0,1,760,76.92,76.92,2,1,0,nan,4,1,24,1,1,3,3,0,0,0,59283463,0.03638,-0.00195,0.95728,0.95797,-0.00745,0.00265,-0.00167,0.00808,0.95797,0.00338,0.00808,3,12206,0,105,0.36483,0.08843,0.24239,98,1,nan,37,1,3,4338,194960,0,0,86.938,15.414,11.192,1,256.156,37.824,14.987,1,1,1,0,4
PPG,1,1444,59310587,129,74892,79558,79447.453,110.547,-110.977,0,0,0,0,76.92,76.92,2,1,0,nan,4,1,24,1,1,4,4,0,0,0,59332057,0.03589,-0.00220,0.95996,0.96063,-0.00745,0.00079,-0.00194,0.00774,0.96063,0.00411,0.00774,3,21484,0,106,0.36483,0.08843,0.24239,98,1,nan,37,1,3,14505,194960,0,0,0.000,15.243,10.857,0,0.000,37.340,14.552,0,0,1,0,4
PPG,1,1445,59350587,146,74900,79580,79448.781,131.219,-77.578,0,0,0,0,76.92,76.92,2,1,0,nan,4,1,24,1,1,5,5,0,0,0,59368609,0.03418,-0.00464,0.96533,0.96595,-0.00798,0.00025,-0.00141,0.00811,0.96595,0.00841,0.00811,3,12128,0,106,0.36483,0.08843,0.24239,98,1,nan,37,1,3,2596,194960,0,0,0.000,15.243,10.857,0,0.000,37.340,14.552,0,0,1,0,4
PPG,1,1446,59390587,124,74907,79633,79450.625,182.375,-44.023,0,0,0,0,76.92,76.92,2,1,0,nan,4,1,24,1,1,6,6,0,0,0,59404999,0.03784,-0.00024,0.95581,0.95656,-0.00692,0.00079,-0.00114,0.00705,0.96087,0.01107,0.00821,3,12138,0,106,0.36483,0.08843,0.24239,98,1,nan,37,1,3,4294,194960,0,0,0.000,15.243,10.857,0,0.000,37.340,14.552,0,0,1,0,4
PPG,1,1447,59430587,122,74921,79690,79453.016,236.984,-16.641,0,0,0,0,76.92,76.92,2,1,0,nan,4,1,24,1,1,7,7,0,0,0,59444015,0.03589,-0.00439,0.95776,0.95845,-0.00612,0.00238,-0.00114,0.00666,0.96033,0.01132,0.00806,3,12206,0,106,0.36483,0.08843,0.24239,98,1,nan,37,1,3,4300,194960,0,0,0.000,15.243,10.857,0,0.000,37.340,14.552,0,0,1,0,4
PPG,1,1448,59470587,124,74936,79748,79455.969,292.031,8.312,0,0,0,0,76.92,76.92,2,1,0,nan,4,1,24,1,1,8,8,0,0,0,59482936,0.03760,-0.00098,0.96021,0.96094,-0.00692,0.00132,-0.00167,0.00724,0.96094,0.00429,0.00735,3,12127,0,106,0.36483,0.08843,0.24239,98,1,nan,37,1,3,4300,194960,0,0,0.000,15.243,10.857,0,0.000,37.340,14.552,0,0,1,0,4
PPG,1,1449,59510587,123,74967,79778,79459.188,318.812,31.562,0,0,0,0,76.92,76.92,2,1,0,nan,4,1,24,1,1,9,9,0,0,0,59521943,0.03345,-0.00146,0.95850,0.95908,-0.00692,0.00105,-0.00194,0.00726,0.96308,0.00680,0.00784,3,12133,0,106,0.36483,0.08843,0.24239,98,1,nan,37,1,3,2595,194960,0,0,0.000,15.243,10.857,0,0.000,37.340,14.552,0,0,1,0,4
PPG,1,1450,59550587,125,74959,79806,79462.656,343.344,60.812,0,0,0,0,76.92,76.92,2,1,0,nan,4,1,24,1,1,10,10,0,0,0,59563538,0.04028,-0.00146,0.95947,0.96032,-0.00745,0.00158,-0.00087,0.00767,0.96032,0.00103,0.00780,3,12110,0,106,0.36483,0.08843,0.24239,98,1,nan,37,1,3,4303,194960,0,0,0.000,15.243,10.857,0,0.000,37.340,14.552,0,0,1,0,4
PPG,1,1451,59590587,128,74958,79833,79466.359,366.641,94.953,0,0,0,0,76.92,76.92,2,1,0,nan,4,1,24,1,1,11,11,0,0,0,59602499,0.03711,-0.00317,0.95459,0.95532,-0.00772,0.00158,-0.00087,0.00793,0.96042,0.00310,0.00811,3,12115,0,106,0.36483,0.08843,0.24239,98,1,nan,37,1,3,2598,194960,0,0,0.000,15.243,10.857,0,0.000,37.340,14.552,0,0,1,0,4
PPG,1,1452,59630587,129,74973,79847,79470.164,376.836,127.492,0,0,0,0,76.92,76.92,2,1,0,nan,4,1,24,1,1,12,12,0,0,0,59644081,0.03638,-0.00244,0.95435,0.95504,-0.00718,0.00185,-0.00114,0.00750,0.96032,0.00528,0.00750,3,12129,0,106,0.36483,0.08843,0.24239,98,1,nan,37,1,3,4311,194960,0,0,0.000,15.243,10.857,0,0.000,37.340,14.552,0,0,1,0,4
PPG,1,1453,59670587,124,74973,79872,79474.180,397.820,155.336,0,0,0,0,76.92,76.92,2,1,0,nan,4,1,24,1,1,13,13,0,0,0,59682999,0.03394,-0.00537,0.95508,0.95570,-0.00772,0.00105,-0.00114,0.00787,0.96238,0.00668,0.00787,3,12114,0,106,0.36483,0.08843,0.24239,98,1,nan,37,1,3,4294,194960,0,0,0.000,15.243,10.857,0,0.000,37.340,14.552,0,0,1,0,4
PPG,1,1454,59710587,127,74977,79840,79477.836,362.164,172.812,0,1,0,0,76.92,76.92,2,1,0,nan,4,1,24,1,1,14,14,0,0,0,59721980,0.04004,-0.00488,0.96021,0.96105,-0.00825,0.00105,-0.00087,0.00836,0.96105,0.00393,0.00926,3,12170,0,106,0.36483,0.08843,0.24239,98,1,nan,37,1,3,2600,194960,0,0,0.000,15.243,10.857,0,0.000,37.340,14.552,0,0,1,0,4
PPG,1,1455,59750587,133,74920,79640,79479.461,160.539,163.992,0,0,0,0,76.92,76.92,2,1,0,nan,4,1,24,1,1,15,15,0,0,0,59763555,0.03711,-0.00488,0.95410,0.95484,-0.00718,0.00132,-0.00087,0.00736,0.95977,0.00442,0.00768,3,12111,0,106,0.36483,0.08843,0.24239,98,1,nan,37,1,3,4295,194960,0,0,0.000,15.243,10.857,0,0.000,37.340,14.552,0,0,1,0,4
PPG,1,1456,59790587,136,74824,79425,79478.914,-53.914,123.758,0,0,0,0,76.92,76.92,2,1,0,nan,4,1,24,1,1,16,16,0,0,0,59802489,0.03711,-0.00146,0.95679,0.95751,-0.00772,0.00132,-0.00114,0.00791,0.95817,0.00193,0.00795,3,12122,0,106,0.36483,0.08843,0.24239,98,1,nan,37,1,3,2602,194960,0,0,0.000,15.243,10.857,0,0.000,37.340,14.552,0,0,1,0,4
PPG,1,1457,59830587,124,74807,79359,79477.719,-118.719,62.000,0,0,0,0,76.92,76.92,2,1,0,nan,4,1,24,1,1,17,17,0,0,0,59844319,0.03760,-0.00122,0.95142,0.95216,-0.00772,0.00105,-0.00114,0.00787,0.95482,0.00296,0.00886,3,12276,0,106,0.36483,0.08843,0.24239,98,1,nan,37,1,3,4362,194960,0,0,0.000,15.243,10.857,0,0.000,37.340,14.552,0,0,1,0,4
PPG,1,1458,59870587,125,74814,79378,79476.719,-98.719,-5.148,0,0,0,0,76.92,76.92,2,1,0,nan,4,1,24,1,1,18,18,0,0,0,59883343,0.03442,0.00220,0.95654,0.95716,-0.00772,0.00105,-0.00141,0.00791,0.95716,0.00234,0.00791,3,12128,0,106,0.36483,0.08843,0.24239,98,1,nan,37,1,3,4343,194960,0,0,0.000,15.243,10.857,0,0.000,37.340,14.552,0,0,1,0,4
PPG,1,1459,59910587,123,74829,79449,79476.445,-27.445,-65.008,0,0,0,0,76.92,76.92,2,1,0,nan,4,1,24,1,1,19,19,0,0,0,59922291,0.03589,-0.00293,0.95776,0.95844,-0.00852,0.00158,-0.00194,0.00888,0.96127,0.00411,0.00888,3,12140,0,106,0.36483,0.08843,0.24239,98,1,nan,37,1,3,2595,194960,0,0,0.000,15.243,10.857,0,0.000,37.340,14.552,0,0,1,0,4
PPG,1,1460,59950587,124,74865,79512,79476.805,35.195,-118.188,0,0,0,0,76.92,76.92,2,1,0,nan,4,1,24,1,1,20,20,0,0,0,59963892,0.03784,-0.00098,0.95508,0.95583,-0.00772,0.00105,-0.00221,0.00809,0.95950,0.00367,0.00818,3,12134,0,106,0.36483,0.08843,0.24239,98,1,nan,37,1,3,4297,194960,0,0,0.000,15.243,10.857,0,0.000,37.340,14.552,0,0,1,0,4
PPG,1,1461,59990587,125,74859,79542,79477.453,64.547,-160.609,0,0,0,0,76.92,76.92,2,1,0,nan,4,1,24,1,1,21,21,0,0,0,60003013,0.03564,-0.00488,0.95996,0.96063,-0.00852,0.00025,-0.00141,0.00863,0.96063,0.00255,0.00863,3,12118,0,106,0.36483,0.08843,0.24239,98,1,nan,37,1,3,2596,194960,0,0,0.000,15.243,10.857,0,0.000,37.340,14.552,0,0,1,0,4
PPG,1,1462,60030587,133,74865,79521,79477.891,43.109,-174.211,1,0,0,0,76.92,76.92,2,1,0,nan,4,1,24,1,1,22,22,0,0,0,60045071,0.03979,-0.00146,0.95508,0.95591,-0.00772,0.00105,-0.00007,0.00779,0.95997,0.00729,0.00779,3,12298,0,106,0.36483,0.08843,0.24239,98,1,nan,37,1,3,4348,194960,0,0,0.000,15.243,10.857,0,305.672,37.340,14.552,1,0,1,0,4
PPG,1,1463,60070587,146,74828,79491,79478.023,12.977,-160.531,0,0,1,780,76.92,76.92,2,1,512,nan,4,1,24,1,1,23,23,0,0,0,60084436,0.03369,-0.00195,0.95996,0.96055,-0.00745,0.00158,-0.00274,0.00809,0.96055,0.00435,0.00809,3,12316,0,106,0.36483,0.08843,0.24239,98,1,nan,37,1,3,4339,194960,0,0,115.047,15.243,10.857,1,0.000,37.340,14.552,0,1,1,0,5
PPG,1,1464,60110587,137,74859,79521,79478.453,42.547,-135.539,0,0,0,0,76.92,76.92,2,1,512,nan,4,1,24,1,1,24,24,0,0,0,60123727,0.03809,-0.00146,0.95532,0.95608,-0.00745,0.00212,-0.00194,0.00798,0.95923,0.00423,0.00798,3,12258,0,106,0.36483,0.08843,0.24239,98,1,nan,37,1,3,4313,194960,0,0,0.000,15.270,10.908,0,0.000,37.226,14.450,0,0,1,0,5
PPG,1,1465,60150587,148,74879,79593,79479.602,113.398,-105.469,0,0,0,0,76.92,76.92,2,1,512,nan,4,1,24,1,1,25,25,0,0,0,60163070,0.03955,-0.00513,0.96045,0.96128,-0.00825,0.00079,-0.00061,0.00831,0.96128,0.00325,0.00831,3,12262,0,106,0.36483,0.08843,0.24239,98,1,nan,37,1,3,4355,194960,0,0,0.000,15.270,10.908,0,0.000,37.226,14.450,0,0,1,0,5
PPG,1,1466,60190587,535,74890,79627,79481.078,145.922,-79.742,0,0,0,0,76.92,76.92,2,1,512,100.00,0,0,24,2,2,27,27,0,0,0,60263594,0.04077,-0.00366,0.95898,0.95986,-0.00718,0.00158,-0.00167,0.00754,0.95995,0.00199,0.00813,4,61222,0,111,0.25506,0.10203,0.40002,100,1,99.999,88,1,3,61147,194960,0,0,0.000,15.270,10.908,0,0.000,37.226,14.450,0,0,1,0,5
PPG,1,1467,60230587,80,74894,79650,79482.766,167.234,-58.031,0,0,0,0,76.92,76.92,2,1,512,100.00,0,0,24,2,2,27,27,0,0,0,60263594,0.04077,-0.00366,0.95898,0.95986,-0.00718,0.00158,-0.00167,0.00754,0.00000,0.00000,0.00000,0,61222,0,111,0.25506,0.10203,0.40002,100,1,99.999,88,1,3,61147,194960,0,0,0.000,15.270,10.908,0,0.000,37.226,14.450,0,0,1,0,5
PPG,1,1468,60270587,136,74902,79669,79484.625,184.375,-35.938,0,0,0,0,76.92,76.92,2,1,512,100.00,0,0,24,1,1,28,28,0,0,0,60277654,0.03784,-0.00244,0.95581,0.95656,-0.00665,0.00105,-0.00114,0.00683,0.95656,0.00330,0.00683,1,14060,0,111,0.25506,0.10203,0.40002,100,1,99.999,88,1,3,10121,194960,0,0,0.000,15.270,10.908,0,0.000,37.226,14.450,0,0,1,0,5
PPG,1,1469,60310587,150,74885,79692,79486.695,205.305,-7.211,0,0,0,0,76.92,76.92,2,1,512,100.00,0,0,24,1,1,29,29,0,0,0,60332370,0.03760,-0.00122,0.95288,0.95362,-0.00745,0.00238,-0.00007,0.00782,0.95521,0.00163,0.00785,3,21904,0,113,0.25506,0.10203,0.40002,100,1,99.999,88,1,3,14860,194960,0,0,0.000,15.270,10.908,0,0.000,37.226,14.450,0,0,1,0,5
PPG,1,1470,60350587,123,74910,79705,79488.875,216.125,28.414,0,0,0,0,76.92,76.92,2,1,512,100.00,0,0,24,1,1,30,30,0,0,0,60369143,0.03833,-0.00464,0.96143,0.96220,-0.00692,0.00185,-0.00194,0.00742,0.96220,0.00486,0.00805,3,12209,0,113,0.25506,0.10203,0.40002,100,1,99.999,88,1,3,2617,194960,0,0,0.000,15.270,10.908,0,0.000,37.226,14.450,0,0,1,0,5
PPG,1,1471,60390587,123,74907,79735,79491.336,243.664,63.891,0,0,0,0,76.92,76.92,2,1,512,100.00,0,0,24,1,1,31,31,0,0,0,60405820,0.03906,-0.00049,0.95825,0.95905,-0.00665,0.00132,-0.00114,0.00687,0.95905,0.01089,0.00736,3,12243,0,113,0.25506,0.10203,0.40002,100,1,99.999,88,1,3,2613,194960,0,0,0.000,15.270,10.908,0,0.000,37.226,14.450,0,0,1,0,5
PPG,1,1472,60430587,123,74912,79752,79493.945,258.055,91.352,0,0,0,0,76.92,76.92,2,1,512,100.00,0,0,24,1,1,0,0,0,0,0,60442486,0.03882,-0.00317,0.96094,0.96173,-0.00798,0.00185,-0.00194,0.00842,0.96398,0.00757,0.00842,3,12243,0,113,0.25506,0.10203,0.40002,100,1,99.999,88,1,3,2622,194960,0,0,0.000,15.270,10.908,0,0.000,37.226,14.450,0,0,1,0,5
PPG,1,1473,60470587,124,74893,79727,79496.273,230.727,112.891,0,0,0,0,76.92,76.92,2,1,512,100.00,0,0,24,1,1,1,1,0,0,0,60484412,0.03979,-0.00049,0.95435,0.95518,-0.00585,0.00185,-0.00114,0.00624,0.95852,0.00409,0.00770,3,12249,0,113,0.25506,0.10203,0.40002,100,1,99.999,88,1,3,4316,194960,0,0,0.000,15.270,10.908,0,0.000,37.226,14.450,0,0,1,0,5
PPG,1,1474,60510587,132,74813,79480,79496.109,-16.109,106.602,0,0,0,0,76.92,76.92,2,1,512,100.00,0,0,24,1,1,2,2,0,0,0,60523681,0.03882,-0.00269,0.95703,0.95782,-0.00745,0.00132,-0.00087,0.00762,0.95946,0.00320,0.00800,3,12250,0,113,0.25506,0.10203,0.40002,100,1,99.999,88,1,3,4344,194960,0,0,0.000,15.270,10.908,0,0.000,37.226,14.450,0,0,1,0,5
PPG,1,1475,60550587,125,74720,79223,79493.375,-270.375,63.742,0,0,0,0,76.92,76.92,2,1,512,100.00,0,0,24,1,1,3,3,0,0,0,60562971,0.03540,-0.00464,0.96021,0.96087,-0.00745,0.00158,-0.00087,0.00767,0.96087,0.00314,0.00776,3,12236,0,113,0.25506,0.10203,0.40002,100,1,99.999,88,1,3,2621,194960,0,0,0.000,15.270,10.908,0,0.000,37.226,14.450,0,0,1,0,5
PPG,1,1476,60590587,127,74698,79167,79490.109,-323.109,1.641,0,0,0,0,76.92,76.92,2,1,512,100.00,0,0,24,1,1,4,4,0,0,0,60604869,0.03833,-0.00293,0.95068,0.95146,-0.00692,0.00132,-0.00007,0.00704,0.95818,0.00670,0.00739,3,12222,0,113,0.25506,0.10203,0.40002,100,1,99.999,88,1,3,4333,194960,0,0,0.000,15.270,10.908,0,0.000,37.226,14.450,0,0,1,0,5
PPG,1,1477,60630587,127,74715,79223,79487.438,-264.438,-60.422,0,0,0,0,76.92,76.92,2,1,512,100.00,0,0,24,1,1,5,5,0,0,0,60644094,0.03271,-0.00659,0.95996,0.96054,-0.00718,0.00158,0.00019,0.00736,0.96336,0.01000,0.00764,3,12161,0,113,0.25506,0.10203,0.40002,100,1,99.999,88,1,3,4302,194960,0,0,0.000,15.270,10.908,0,0.000,37.226,14.450,0,0,1,0,5
PPG,1,1478,60670587,133,74730,79283,79485.391,-202.391,-120.242,0,1,0,0,76.92,76.92,2,1,512,100.00,0,0,24,1,1,6,6,0,0,0,60683300,0.03735,-0.00049,0.96045,0.96118,-0.00718,0.00079,-0.00114,0.00732,0.96307,0.00585,0.00926,3,12159,0,113,0.25506,0.10203,0.40002,100,1,99.999,88,1,3,2594,194960,0,0,0.000,15.270,10.908,0,0.000,37.226,14.450,0,0,1,0,5
PPG,1,1479,60710587,123,74775,79379,79484.328,-105.328,-170.031,0,0,0,0,76.92,76.92,2,1,512,100.00,0,0,24,1,1,7,7,0,0,0,60724909,0.03491,-0.00342,0.95874,0.95938,-0.00798,0.00105,-0.00087,0.00810,0.95938,0.00332,0.00810,3,12115,0,113,0.25506,0.10203,0.40002,100,1,99.999,88,1,3,4295,194960,0,0,0.000,15.270,10.908,0,0.000,37.226,14.450,0,0,1,0,5
PPG,1,1480,60750587,122,74786,79437,79483.852,-46.852,-207.711,0,0,0,0,76.92,76.92,2,1,512,100.00,0,0,24,1,1,8,8,0,0,0,60763987,0.03809,-0.00293,0.95459,0.95535,-0.00852,0.00105,-0.00141,0.00869,0.95987,0.00251,0.00869,3,12184,0,113,0.25506,0.10203,0.40002,100,1,99.999,88,1,3,4299,194960,0,0,0.000,15.270,10.908,0,0.000,37.226,14.450,0,0,1,0,5
PPG,1,1481,60790587,146,74752,79383,79482.844,-99.844,-213.609,1,0,1,740,76.92,76.92,2,1,0,100.00,0,0,24,1,1,9,9,0,0,0,60802952,0.03833,-0.00220,0.95093,0.95170,-0.00692,0.00052,-0.00167,0.00713,0.96307,0.01136,0.00836,3,12127,0,113,0.25506,0.10203,0.40002,100,1,99.999,88,1,3,2595,194960,0,0,89.906,15.270,10.908,1,287.102,37.226,14.450,1,1,1,0,6
PPG,1,1482,60830587,120,74731,79338,79481.398,-143.398,-188.039,0,0,0,0,76.92,76.92,2,1,0,100.00,0,0,24,1,1,10,10,0,0,0,60844635,0.03589,-0.00317,0.95459,0.95527,-0.00718,0.00079,-0.00061,0.00725,0.95868,0.00555,0.00725,3,12168,0,113,0.25506,0.10203,0.40002,100,1,99.999,88,1,3,4296,194960,0,0,0.000,15.135,10.645,0,0.000,37.010,14.256,0,0,1,0,6
PPG,1,1483,60870587,124,74745,79340,79479.984,-139.984,-155.773,0,0,0,0,76.92,76.92,2,1,0,100.00,0,0,24,1,1,11,11,0,0,0,60883590,0.03394,-0.00342,0.95898,0.95959,-0.00772,0.00185,-0.00194,0.00817,0.95959,0.00397,0.00817,3,12127,0,113,0.25506,0.10203,0.40002,100,1,99.999,88,1,3,4298,194960,0,0,0.000,15.135,10.645,0,0.000,37.010,14.256,0,0,1,0,6
PPG,1,1484,60910587,127,74750,79388,79479.062,-91.062,-125.547,0,0,0,0,76.92,76.92,2,1,0,100.00,0,0,24,1,1,12,12,0,0,0,60922529,0.03540,0.00000,0.95361,0.95427,-0.00772,0.00158,-0.00034,0.00788,0.96126,0.00646,0.00801,3,12111,0,113,0.25506,0.10203,0.40002,100,1,99.999,88,1,3,2596,194960,0,0,0.000,15.135,10.645,0,0.000,37.010,14.256,0,0,1,0,6
PPG,1,1485,60950587,126,74759,79447,79478.742,-31.742,-94.820,0,0,0,0,76.92,76.92,2,1,0,100.00,0,0,24,1,1,13,13,0,0,0,60964216,0.04370,-0.00244,0.95801,0.95901,-0.00745,0.00052,-0.00221,0.00779,0.95942,0.00409,0.00779,3,12123,0,113,0.25506,0.10203,0.40002,100,1,99.999,88,1,3,4296,194960,0,0,0.000,15.135,10.645,0,0.000,37.010,14.256,0,0,1,0,6
PPG,1,1486,60990587,124,74792,79510,79479.055,30.945,-70.258,0,0,0,0,76.92,76.92,2,1,0,100.00,0,0,24,1,1,14,14,0,0,0,61003156,0.03809,-0.00171,0.95166,0.95242,-0.00692,0.00212,-0.00221,0.00756,0.95514,0.00419,0.00830,3,12112,0,113,0.25506,0.10203,0.40002,100,1,99.999,88,1,3,2595,194960,0,0,0.000,15.135,10.645,0,0.000,37.010,14.256,0,0,1,0,6
PPG,1,1487,61030587,125,74806,79552,79479.781,72.219,-48.930,0,0,0,0,76.92,76.92,2,1,0,100.00,0,0,24,1,1,15,15,0,0,0,61044792,0.03296,-0.00293,0.96216,0.96273,-0.00825,0.00132,-0.00034,0.00836,0.96273,0.00984,0.00836,3,12173,0,113,0.25506,0.10203,0.40002,100,1,99.999,88,1,3,4328,194960,0,0,0.000,15.135,10.645,0,0.000,37.010,14.256,0,0,1,0,6
PPG,1,1488,61070587,124,74799,79591,79480.891,110.109,-15.312,0,0,0,0,76.92,76.92,2,1,0,100.00,0,0,24,1,1,16,16,0,0,0,61083758,0.03638,-0.00317,0.95947,0.96017,-0.00718,0.00132,-0.00141,0.00744,0.96043,0.00937,0.00830,3,12117,0,113,0.25506,0.10203,0.40002,100,1,99.999,88,1,3,4296,194960,0,0,0.000,15.135,10.645,0,0.000,37.010,14.256,0,0,1,0,6
PPG,1,1489,61110587,126,74813,79627,79482.352,144.648,29.219,0,0,0,0,76.92,76.92,2,1,0,100.00,0,0,24,1,1,17,17,0,0,0,61122756,0.03369,-0.00146,0.95459,0.95519,-0.00745,0.00158,-0.00061,0.00764,0.95970,0.00452,0.00810,3,12117,0,113,0.25506,0.10203,0.40002,100,1,99.999,88,1,3,2599,194960,0,0,0.000,15.135,10.645,0,0.000,37.010,14.256,0,0,1,0,6
PPG,1,1490,61150587,123,74819,79626,79483.789,142.211,74.031,0,0,0,0,76.92,76.92,2,1,0,100.00,0,0,24,1,1,18,18,0,0,0,61164404,0.04004,-0.00391,0.95483,0.95568,-0.00692,0.00158,-0.00061,0.00712,0.96073,0.00555,0.00755,3,12127,0,113,0.25506,0.10203,0.40002,100,1,99.999,88,1,3,4294,194960,0,0,0.000,15.135,10.645,0,0.000,37.010,14.256,0,0,1,0,6
PPG,1,1491,61190587,547,74821,79649,79485.438,163.562,115.609,0,0,0,0,76.92,76.92,2,1,0,100.00,0,0,24,1,1,19,19,0,0,0,61203359,0.03638,-0.00024,0.95288,0.95358,-0.00718,0.00185,-0.00034,0.00743,0.96082,0.00725,0.00770,3,12119,0,113,0.19697,0.13640,0.69247,100,1,92.688,93,1,3,2599,194960,0,0,0.000,15.135,10.645,0,0.000,37.010,14.256,0,0,1,0,6
PPG,1,1492,61230587,173,74828,79686,79487.445,198.555,153.062,0,0,0,0,76.92,76.92,2,1,0,100.00,0,0,24,1,1,20,20,0,0,0,61245500,0.03833,-0.00342,0.95679,0.95756,-0.00772,0.00079,-0.00087,0.00780,0.95976,0.00364,0.00911,3,12144,0,113,0.19697,0.13640,0.69247,100,1,92.688,93,1,3,4295,194960,0,0,0.000,15.135,10.645,0,0.000,37.010,14.256,0,0,1,0,6
PPG,1,1493,61270587,124,74800,79608,79488.648,119.352,173.008,0,0,0,0,76.92,76.92,2,1,0,100.00,0,0,24,1,1,21,21,0,0,0,61284622,0.04150,-0.00122,0.95264,0.95354,-0.00692,0.00079,-0.00061,0.00699,0.95750,0.00275,0.00848,3,12129,0,113,0.19697,0.13640,0.69247,100,1,92.688,93,1,3,4294,194960,0,0,0.000,15.135,10.645,0,0.000,37.010,14.256,0,0,1,0,6
PPG,1,1494,61310587,140,74736,79396,79487.719,-91.719,154.922,0,0,0,0,76.92,76.92,2,1,0,100.00,0,0,24,1,1,22,22,0,0,0,61332896,0.03931,-0.00269,0.95874,0.95955,-0.00638,0.00265,-0.00221,0.00726,0.96315,0.00960,0.00762,3,21433,0,114,0.19697,0.13640,0.69247,100,1,92.688,93,1,3,14457,194960,0,0,0.000,15.135,10.645,0,0.000,37.010,14.256,0,0,1,0,6
PPG,1,1495,61350587,125,74673,79249,79485.328,-236.328,104.758,0,0,0,0,76.92,76.92,2,1,0,100.00,0,0,24,1,1,23,23,0,0,0,61369405,0.04028,-0.00024,0.95850,0.95934,-0.00745,0.00132,-0.00061,0.00759,0.95934,0.00577,0.00797,3,12111,0,114,0.19697,0.13640,0.69247,100,1,92.688,93,1,3,2588,194960,0,0,0.000,15.135,10.645,0,0.000,37.010,14.256,0,0,1,0,6
PPG,1,1496,61390587,124,74671,79240,79482.875,-242.875,45.828,0,0,0,0,76.92,76.92,2,1,0,100.00,0,0,24,1,1,24,24,0,0,0,61405757,0.04297,-0.00244,0.95410,0.95507,-0.00665,0.00105,-0.00061,0.00676,0.95843,0.00357,0.00780,3,12116,0,114,0.19697,0.13640,0.69247,100,1,92.688,93,1,3,4294,194960,0,0,0.000,15.135,10.645,0,0.000,37.010,14.256,0,0,1,0,6
PPG,1,1497,61430587,125,74668,79261,79480.656,-219.656,-8.211,0,0,0,0,76.92,76.92,2,1,0,100.00,0,0,24,1,1,25,25,0,0,0,61444733,0.03809,-0.00488,0.95508,0.95585,-0.00718,0.00132,-0.00061,0.00733,0.96126,0.00619,0.00738,3,12114,0,114,0.19697,0.13640,0.69247,100,1,92.688,93,1,3,4314,194960,0,0,0.000,15.135,10.645,0,0.000,37.010,14.256,0,0,1,0,6
PPG,1,1498,61470587,124,74673,79306,79478.906,-172.906,-58.359,0,0,0,0,76.92,76.92,2,1,0,100.00,0,0,24,1,1,26,26,0,0,0,61483796,0.03882,-0.00391,0.95313,0.95392,-0.00852,0.00132,-0.00087,0.00866,0.96053,0.00661,0.00866,3,12116,0,114,0.19697,0.13640,0.69247,100,1,92.688,93,1,3,4309,194960,0,0,0.000,15.135,10.645,0,0.000,37.010,14.256,0,0,1,0,6
PPG,1,1499,61510587,128,74724,79370,79477.820,-107.820,-103.062,0,1,0,0,76.92,76.92,2,1,0,100.00,0,0,24,1,1,27,27,0,0,0,61522800,0.03564,-0.00488,0.95996,0.96063,-0.00718,0.00158,-0.00007,0.00736,0.96063,0.00476,0.00862,3,12138,0,114,0.19697,0.13640,0.69247,100,1,92.688,93,1,3,2594,194960,0,0,0.000,15.135,10.645,0,0.000,37.010,14.256,0,0,1,0,6
PPG,1,1500,61550587,125,74710,79371,79476.750,-105.750,-133.609,0,0,0,0,76.92,76.92,2,1,0,100.00,0,0,24,1,1,28,28,0,0,0,61564509,0.03320,-0.00684,0.95630,0.95690,-0.00772,0.00025,0.00046,0.00773,0.95798,0.00545,0.00831,3,12169,0,114,0.19697,0.13640,0.69247,100,1,92.688,93,1,3,4295,194960,0,0,0.000,15.135,10.645,0,0.000,37.010,14.256,0,0,1,0,6
PPG,1,1501,61590587,168,74700,79335,79475.336,-140.336,-139.930,1,0,1,800,76.92,76.92,0,0,0,100.00,0,0,24,1,1,29,29,0,0,0,61603490,0.04102,-0.00122,0.95825,0.95913,-0.00798,0.00158,-0.00061,0.00816,0.95992,0.00373,0.00816,3,12122,0,114,0.19697,0.13640,0.69247,100,1,92.688,93,1,3,2602,194960,0,0,130.906,15.135,10.645,1,386.617,37.010,14.256,1,1,2,0,7
PPG,1,1502,61630587,123,74688,79318,79473.766,-155.766,-129.070,0,0,0,0,76.92,76.92,0,0,0,100.00,0,0,24,1,1,30,30,0,0,0,61645162,0.03979,-0.00098,0.95264,0.95347,-0.00692,0.00132,-0.00007,0.00704,0.95931,0.00486,0.00805,3,12118,0,114,0.19697,0.13640,0.69247,100,1,92.688,93,1,3,4299,194960,0,0,0.000,15.274,10.917,0,0.000,37.443,14.645,0,0,2,0,7
PPG,1,1503,61670587,130,74712,79386,79472.891,-86.891,-110.508,0,0,0,0,76.92,76.92,0,0,0,100.00,0,0,24,1,1,31,31,0,0,0,61684201,0.03857,-0.00195,0.95044,0.95122,-0.00878,0.00158,-0.00141,0.00903,0.95944,0.00600,0.00903,3,12120,0,114,0.19697,0.13640,0.69247,100,1,92.688,93,1,3,4297,194960,0,0,0.000,15.274,10.917,0,0.000,37.443,14.645,0,0,2,0,7
PPG,1,1504,61710587,126,74729,79433,79472.492,-39.492,-88.188,0,0,0,0,76.92,76.92,0,0,0,100.00,0,0,24,1,1,0,0,0,0,0,61723199,0.03760,-0.00488,0.95947,0.96022,-0.00772,0.00105,-0.00141,0.00791,0.96022,0.00849,0.00924,3,12173,0,114,0.19697,0.13640,0.69247,100,1,92.688,93,1,3,2608,194960,0,0,0.000,15.274,10.917,0,0.000,37.443,14.645,0,0,2,0,7
PPG,1,1505,61750587,129,74729,79469,79472.461,-3.461,-66.008,0,0,0,0,76.92,76.92,0,0,0,100.00,0,0,24,1,1,1,1,0,0,0,61764903,0.03906,-0.00195,0.95508,0.95588,-0.00745,0.00132,-0.00087,0.00762,0.96069,0.00481,0.00868,3,12177,0,114,0.19697,0.13640,0.69247,100,1,92.688,93,1,3,4296,194960,0,0,0.000,15.274,10.917,0,0.000,37.443,14.645,0,0,2,0,7
PPG,1,1506,61790587,126,74711,79462,79472.359,-10.359,-50.461,0,0,0,0,76.92,76.92,0,0,0,100.00,0,0,24,1,1,2,2,0,0,0,61803853,0.03784,-0.00293,0.95581,0.95656,-0.00798,0.00212,-0.00167,0.00843,0.95830,0.00173,0.00843,3,12124,0,114,0.19697,0.13640,0.69247,100,1,92.688,93,1,3,4310,194960,0,0,0.000,15.274,10.917,0,0.000,37.443,14.645,0,0,2,0,7
PPG,1,1507,61830587,127,74705,79491,79472.547,18.453,-30.273,0,0,0,0,76.92,76.92,0,0,0,100.00,0,0,24,1,1,3,3,0,0,0,61842817,0.03687,-0.00098,0.95605,0.95677,-0.00772,0.00158,-0.00274,0.00834,0.95979,0.00323,0.00852,3,12121,0,114,0.19697,0.13640,0.69247,100,1,92.688,93,1,3,2595,194960,0,0,0.000,15.274,10.917,0,0.000,37.443,14.645,0,0,2,0,7
PPG,1,1508,61870587,126,74722,79515,79472.969,42.031,-0.758,0,0,0,0,76.92,76.92,0,0,0,100.00,0,0,24,1,1,4,4,0,0,0,61884407,0.03784,-0.00244,0.95557,0.95632,-0.00718,0.00158,-0.00034,0.00736,0.95768,0.00193,0.00791,3,12125,0,114,0.19697,0.13640,0.69247,100,1,92.688,93,1,3,4294,194960,0,0,0.000,15.274,10.917,0,0.000,37.443,14.645,0,0,2,0,7
PPG,1,1509,61910587,143,74740,79565,79473.891,91.109,37.633,0,0,0,0,76.92,76.92,0,0,0,100.00,0,0,24,1,1,5,5,0,0,0,61923359,0.03369,-0.00342,0.95947,0.96007,-0.00745,0.00079,-0.00247,0.00789,0.96103,0.00282,0.00806,3,12119,0,114,0.19697,0.13640,0.69247,100,1,92.688,93,1,3,2599,194960,0,0,0.000,15.274,10.917,0,0.000,37.443,14.645,0,0,2,0,7
PPG,1,1510,61950587,127,74730,79594,79475.094,118.906,68.938,0,0,0,0,76.92,76.92,0,0,0,100.00,0,0,24,1,1,6,6,0,0,0,61964975,0.04004,-0.00122,0.95630,0.95714,-0.00798,0.00132,-0.00114,0.00817,0.95922,0.00117,0.00871,3,12157,0,114,0.19697,0.13640,0.69247,100,1,92.688,93,1,3,4325,194960,0,0,0.000,15.274,10.917,0,0.000,37.443,14.645,0,0,2,0,7
PPG,1,1511,61990587,132,74744,79627,79476.609,150.391,97.758,0,0,0,0,76.92,76.92,0,0,0,100.00,0,0,24,1,1,7,7,0,0,0,62004043,0.03809,0.00049,0.95508,0.95584,-0.00665,0.00158,-0.00141,0.00698,0.96331,0.00747,0.00796,3,12129,0,114,0.19697,0.13640,0.69247,100,1,92.688,93,1,3,4309,194960,0,0,0.000,15.274,10.917,0,0.000,37.443,14.645,0,0,2,0,7
PPG,1,1512,62030587,126,74778,79646,79478.305,167.695,125.039,0,0,0,0,76.92,76.92,0,0,0,100.00,0,0,24,1,1,8,8,0,0,0,62043003,0.03906,-0.00488,0.94995,0.95077,-0.00745,0.00052,-0.00087,0.00752,0.96152,0.01075,0.00752,3,12119,0,114,0.19697,0.13640,0.69247,100,1,92.688,93,1,3,2599,194960,0,0,0.000,15.274,10.917,0,0.000,37.443,14.645,0,0,2,0,7
PPG,1,1513,62070587,128,74757,79606,79479.578,126.422,145.711,0,0,0,0,76.92,76.92,0,0,0,100.00,0,0,24,1,1,9,9,0,0,0,62084785,0.03589,-0.00635,0.95752,0.95821,-0.00692,0.00158,-0.00221,0.00743,0.95821,0.00494,0.00852,3,12316,0,114,0.19697,0.13640,0.69247,100,1,92.688,93,1,3,4346,194960,0,0,0.000,15.274,10.917,0,0.000,37.443,14.645,0,0,2,0,7
PPG,1,1514,62110587,138,74662,79335,79478.133,-143.133,126.477,0,0,0,0,76.92,76.92,0,0,0,100.00,0,0,24,1,1,10,10,0,0,0,62123955,0.04028,-0.00122,0.95581,0.95666,-0.00718,0.00158,-0.00167,0.00754,0.96450,0.00629,0.00754,3,12111,0,114,0.19697,0.13640,0.69247,100,1,92.688,93,1,3,4301,194960,0,0,0.000,15.274,10.917,0,0.000,37.443,14.645,0,0,2,0,7
PPG,1,1515,62150587,127,74554,79086,79474.211,-388.211,73.344,0,0,0,0,76.92,76.92,0,0,0,100.00,0,0,24,1,1,11,11,0,0,0,62162979,0.03613,-0.00220,0.95874,0.95942,-0.00905,0.00212,-0.00114,0.00936,0.95942,0.01179,0.00936,3,12118,0,114,0.19697,0.13640,0.69247,100,1,92.688,93,1,3,2600,194960,0,0,0.000,15.274,10.917,0,0.000,37.443,14.645,0,0,2,0,7
PPG,1,1516,62190587,522,74542,79021,79469.680,-448.680,6.578,0,0,0,0,76.92,76.92,0,0,0,100.00,0,0,24,1,1,12,12,0,0,0,62204621,0.03638,-0.00342,0.95020,0.95090,-0.00718,0.00158,-0.00167,0.00754,0.95853,0.00763,0.00778,3,12177,0,114,0.22017,0.14614,0.66377,100,1,93.406,100,1,3,4302,194960,0,0,0.000,15.274,10.917,0,0.000,37.443,14.645,0,0,2,0,7
PPG,1,1517,62230587,183,74565,79072,79465.703,-393.703,-58.539,0,1,0,0,76.92,76.92,0,0,0,100.00,0,0,24,1,1,13,13,0,0,0,62244141,0.03784,-0.00195,0.95117,0.95193,-0.00825,0.00185,-0.00167,0.00862,0.95410,0.00321,0.00862,3,12261,0,114,0.22017,0.14614,0.66377,100,1,93.406,100,1,3,4305,194960,0,0,0.000,15.274,10.917,0,0.000,37.443,14.645,0,0,2,0,7
PPG,1,1518,62270587,187,74583,79146,79462.508,-316.508,-119.258,0,0,0,0,76.92,76.92,0,0,0,100.00,0,0,24,1,1,14,14,0,0,0,62283199,0.04004,-0.00488,0.95361,0.95447,-0.00772,0.00105,-0.00141,0.00791,0.95655,0.00361,0.00811,3,12152,0,114,0.22017,0.14614,0.66377,100,1,93.406,100,1,3,2641,194960,0,0,0.000,15.274,10.917,0,0.000,37.443,14.645,0,0,2,0,7
PPG,1,1519,62310587,132,74623,79215,79460.031,-245.031,-173.078,0,0,0,0,76.92,76.92,0,0,0,100.00,0,0,24,1,1,15,15,0,0,0,62334994,0.03662,-0.00415,0.95679,0.95750,-0.00745,0.00105,-0.00141,0.00765,0.95891,0.00445,0.00846,3,22192,0,115,0.22017,0.14614,0.66377,100,1,93.406,100,1,3,15200,194960,0,0,0.000,15.274,10.917,0,0.000,37.443,14.645,0,0,2,0,7
PPG,1,1520,62350587,128,74644,79273,79458.164,-185.164,-215.750,0,0,0,0,76.92,76.92,0,0,0,100.00,0,0,24,1,1,16,16,0,0,0,62359551,0.03564,-0.00439,0.95508,0.95575,-0.00772,0.00132,-0.00061,0.00785,0.95611,0.00139,0.00795,2,12305,0,115,0.22017,0.14614,0.66377,100,1,93.406,100,1,3,2626,194960,0,0,0.000,15.274,10.917,0,0.000,37.443,14.645,0,0,2,0,7
PPG,1,1521,62390587,150,74625,79236,79455.945,-219.945,-224.938,1,0,1,800,76.92,76.92,0,0,0,100.00,0,0,24,1,1,17,17,0,0,0,62404173,0.04028,-0.00635,0.95068,0.95156,-0.00798,0.00025,-0.00194,0.00822,0.95737,0.00582,0.00822,3,12249,0,116,0.22017,0.14614,0.66377,100,1,93.406,100,1,3,4336,194960,0,0,86.898,15.274,10.917,1,285.641,37.443,14.645,1,1,2,0,7
PPG,1,1522,62430587,144,74600,79184,79453.227,-269.227,-204.242,0,0,0,0,76.92,76.92,0,0,0,100.00,0,0,24,1,1,18,18,0,0,0,62443585,0.04004,-0.00391,0.95972,0.96056,-0.00692,0.00105,-0.00141,0.00714,0.96056,0.00384,0.00840,3,12199,0,116,0.22017,0.14614,0.66377,100,1,93.406,100,1,3,2629,194960,0,0,0.000,15.121,10.616,0,0.000,37.191,14.419,0,0,2,0,7
PPG,1,1523,62470587,131,74614,79235,79451.047,-216.047,-166.117,0,0,0,0,76.92,76.92,0,0,0,100.00,0,0,24,1,1,19,19,0,0,0,62485657,0.03467,-0.00317,0.95703,0.95766,-0.00718,0.00212,-0.00114,0.00758,0.96039,0.00299,0.00828,3,12275,0,116,0.22017,0.14614,0.66377,100,1,93.406,100,1,3,4329,194960,0,0,0.000,15.121,10.616,0,0.000,37.191,14.419,0,0,2,0,7
PPG,1,1524,62510587,133,74646,79302,79449.555,-147.555,-126.711,0,0,0,0,76.92,76.92,0,0,0,100.00,0,0,24,1,1,20,20,0,0,0,62524957,0.03687,-0.00317,0.95508,0.95579,-0.00745,0.00185,-0.00141,0.00780,0.96242,0.00663,0.00780,3,12245,0,116,0.22017,0.14614,0.66377,100,1,93.406,100,1,3,4331,194960,0,0,0.000,15.121,10.616,0,0.000,37.191,14.419,0,0,2,0,7
PPG,1,1525,62550587,128,74671,79367,79448.727,-81.727,-90.039,0,0,0,0,76.92,76.92,0,0,0,100.00,0,0,24,1,1,21,21,0,0,0,62564303,0.03589,-0.00073,0.95508,0.95575,-0.00745,0.00132,-0.00061,0.00759,0.96312,0.00737,0.00791,3,12255,0,116,0.22017,0.14614,0.66377,100,1,93.406,100,1,3,4345,194960,0,0,0.000,15.121,10.616,0,0.000,37.191,14.419,0,0,2,0,7
PPG,1,1526,62590587,129,74676,79415,79448.391,-33.391,-59.117,0,0,0,0,76.92,76.92,0,0,0,100.00,0,0,24,1,1,22,22,0,0,0,62603558,0.03784,0.00024,0.95972,0.96046,-0.00798,0.00105,-0.00114,0.00813,0.96181,0.00867,0.00813,3,12188,0,116,0.22017,0.14614,0.66377,100,1,93.406,100,1,3,2634,194960,0,0,0.000,15.121,10.616,0,0.000,37.191,14.419,0,0,2,0,7
PPG,1,1527,62630587,130,74682,79472,79448.625,23.375,-29.742,0,0,0,0,76.92,76.92,0,0,0,100.00,0,0,24,1,1,23,23,0,0,0,62645549,0.03662,-0.00610,0.95142,0.95214,-0.00772,0.00132,-0.00034,0.00784,0.95911,0.00840,0.00784,3,12246,0,116,0.22017,0.14614,0.66377,100,1,93.406,100,1,3,4332,194960,0,0,0.000,15.121,10.616,0,0.000,37.191,14.419,0,0,2,0,7
PPG,1,1528,62670587,130,74686,79471,79448.852,22.148,6.031,0,0,0,0,76.92,76.92,0,0,0,100.00,0,0,24,1,1,24,24,0,0,0,62684814,0.03809,-0.00293,0.95972,0.96048,-0.00692,0.00079,-0.00061,0.00699,0.96089,0.00534,0.00753,3,12251,0,116,0.22017,0.14614,0.66377,100,1,93.406,100,1,3,4352,194960,0,0,0.000,15.121,10.616,0,0.000,37.191,14.419,0,0,2,0,7
PPG,1,1529,62710587,135,74698,79512,79449.484,62.516,55.539,0,0,0,0,76.92,76.92,0,0,0,100.00,0,0,24,1,1,25,25,0,0,0,62724084,0.03906,0.00049,0.96045,0.96124,-0.00772,0.00105,-0.00141,0.00791,0.96124,0.00452,0.00791,3,12224,0,116,0.22017,0.14614,0.66377,100,1,93.406,100,1,3,4344,194960,0,0,0.000,15.121,10.616,0,0.000,37.191,14.419,0,0,2,0,7
PPG,1,1530,62750587,134,74723,79542,79450.406,91.594,101.992,0,0,0,0,76.92,76.92,0,0,0,100.00,0,0,24,1,1,26,26,0,0,0,62763345,0.03687,-0.00488,0.95801,0.95873,-0.00692,0.00132,-0.00141,0.00718,0.95962,0.00618,0.00841,3,12218,0,116,0.22017,0.14614,0.66377,100,1,93.406,100,1,3,2624,194960,0,0,0.000,15.121,10.616,0,0.000,37.191,14.419,0,0,2,0,7
PPG,1,1531,62790587,127,74726,79571,79451.609,119.391,143.219,0,0,0,0,76.92,76.92,0,0,0,100.00,0,0,24,1,1,27,27,0,0,0,62805319,0.03638,-0.00146,0.96143,0.96211,-0.00745,0.00185,-0.00061,0.00770,0.96325,0.00855,0.00775,3,12193,0,116,0.22017,0.14614,0.66377,100,1,93.406,100,1,3,4353,194960,0,0,0.000,15.121,10.616,0,0.000,37.191,14.419,0,0,2,0,7
PPG,1,1532,62830587,127,74735,79589,79452.984,136.016,177.789,0,0,0,0,76.92,76.92,0,0,0,100.00,0,0,24,1,1,28,28,0,0,0,62844630,0.03394,-0.00513,0.95850,0.95911,-0.00772,0.00132,-0.00114,0.00791,0.95911,0.00693,0.00791,3,12223,0,116,0.22017,0.14614,0.66377,100,1,93.406,100,1,3,4329,194960,0,0,0.000,15.121,10.616,0,0.000,37.191,14.419,0,0,2,0,7
PPG,1,1533,62870587,127,74732,79620,79454.656,165.344,206.367,0,0,0,0,76.92,76.92,0,0,0,100.00,0,0,24,1,1,29,29,0,0,0,62883939,0.03369,-0.00146,0.95117,0.95177,-0.00798,0.00158,-0.00061,0.00816,0.95569,0.00342,0.00836,3,12247,0,116,0.22017,0.14614,0.66377,100,1,93.406,100,1,3,2637,194960,0,0,0.000,15.121,10.616,0,0.000,37.191,14.419,0,0,2,0,7
PPG,1,1534,62910587,183,74718,79584,79455.953,128.047,209.922,0,0,0,0,76.92,76.92,0,0,0,100.00,0,0,24,1,1,30,30,0,0,0,62925826,0.03589,-0.00171,0.95605,0.95673,-0.00798,0.00158,-0.00087,0.00819,0.96460,0.01283,0.00819,3,12212,0,116,0.22017,0.14614,0.66377,100,1,93.406,100,1,3,4325,194960,0,0,0.000,15.121,10.616,0,0.000,37.191,14.419,0,0,2,0,7
PPG,1,1535,62950587,140,74633,79350,79454.891,-104.891,179.438,0,0,0,0,76.92,76.92,0,0,0,100.00,0,0,24,1,1,31,31,0,0,0,62965182,0.03711,0.00073,0.94995,0.95068,-0.00798,0.00132,-0.00167,0.00826,0.96397,0.00728,0.00826,3,12153,0,116,0.22017,0.14614,0.66377,100,1,93.406,100,1,3,4307,194960,0,0,0.000,15.121,10.616,0,0.000,37.191,14.419,0,0,2,0,7
PPG,1,1536,62990587,127,74574,79124,79451.578,-327.578,118.859,0,0,0,0,76.92,76.92,0,0,0,100.00,0,0,24,1,1,0,0,0,0,0,63004392,0.03638,-0.00024,0.95850,0.95919,-0.00745,0.00212,-0.00221,0.00805,0.96553,0.01124,0.00871,3,12113,0,116,0.22017,0.14614,0.66377,100,1,93.406,100,1,3,4295,194960,0,0,0.000,15.121,10.616,0,0.000,37.191,14.419,0,0,2,0,7
PPG,1,1537,63030587,130,74539,79074,79447.805,-373.805,51.898,0,1,0,0,76.92,76.92,0,0,0,100.00,0,0,24,1,1,1,1,0,0,0,63043359,0.04077,0.00146,0.95850,0.95936,-0.00772,0.00105,-0.00167,0.00797,0.96313,0.00377,0.00797,3,12117,0,116,0.22017,0.14614,0.66377,100,1,93.406,100,1,3,2598,194960,0,0,0.000,15.121,10.616,0,0.000,37.191,14.419,0,0,2,0,7
PPG,1,1538,63070587,127,74534,79106,79444.383,-338.383,-12.531,0,0,0,0,76.92,76.92,0,0,0,100.00,0,0,24,1,1,2,2,0,0,0,63084992,0.03345,0.00171,0.95996,0.96055,-0.00745,0.00158,-0.00141,0.00775,0.96448,0.00875,0.00899,3,12120,0,116,0.22017,0.14614,0.66377,100,1,93.406,100,1,3,4327,194960,0,0,0.000,15.121,10.616,0,0.000,37.191,14.419,0,0,2,0,7
PPG,1,1539,63110587,127,74567,79195,79441.891,-246.891,-67.812,0,0,0,0,76.92,76.92,0,0,0,100.00,0,0,24,1,1,3,3,0,0,0,63123991,0.03955,-0.00244,0.95605,0.95688,-0.00692,-0.00001,-0.00141,0.00706,0.96101,0.00603,0.00787,3,12137,0,116,0.22017,0.14614,0.66377,100,1,93.406,100,1,3,2600,194960,0,0,0.000,15.121,10.616,0,0.000,37.191,14.419,0,0,2,0,7
PPG,1,1540,63150587,128,74604,79278,79440.250,-162.250,-116.922,0,0,0,0,76.92,76.92,0,0,0,100.00,0,0,24,1,1,4,4,0,0,0,63165609,0.03784,0.00024,0.95557,0.95632,-0.00718,0.00132,-0.00141,0.00744,0.95670,0.00081,0.00745,3,12127,0,116,0.22017,0.14614,0.66377,100,1,93.406,100,1,3,4298,194960,0,0,0.000,15.121,10.616,0,0.000,37.191,14.419,0,0,2,0,7
PPG,1,1541,63190587,529,74605,79303,79438.875,-135.875,-160.414,0,0,0,0,76.92,76.92,0,0,0,100.00,0,0,24,1,1,5,5,0,0,0,63204640,0.03369,-0.00610,0.95996,0.96057,-0.00745,0.00132,-0.00007,0.00757,0.96119,0.00447,0.00874,3,12137,0,116,0.24842,0.15351,0.61793,100,1,94.552,93,1,3,4321,194960,0,0,0.000,15.121,10.616,0,0.000,37.191,14.419,0,0,2,0,7
PPG,1,1542,63230587,196,74590,79251,79437.000,-186.000,-177.906,1,0,1,840,75.00,75.00,0,0,0,100.00,0,0,24,1,1,6,6,0,0,0,63244139,0.03809,-0.00342,0.96021,0.96097,-0.00798,0.00079,-0.00087,0.00807,0.96097,0.00658,0.00807,3,12116,0,116,0.24842,0.15351,0.61793,100,1,94.552,93,1,3,2603,194960,0,0,151.000,15.121,10.616,1,434.859,37.191,14.419,1,1,2,0,7
PPG,1,1543,63270587,126,74567,79195,79434.578,-239.578,-165.758,0,0,0,0,75.00,75.00,0,0,0,100.00,0,0,24,1,1,7,7,0,0,0,63285825,0.03687,-0.00366,0.94751,0.94823,-0.00852,0.00212,-0.00194,0.00899,0.96035,0.01212,0.00899,3,12116,0,116,0.24842,0.15351,0.61793,100,1,94.552,93,1,3,4315,194960,0,0,0.000,15.387,11.138,0,0.000,37.903,15.059,0,0,2,0,7
PPG,1,1544,63310587,135,74584,79249,79432.719,-183.719,-138.109,0,0,0,0,75.00,75.00,0,0,0,100.00,0,0,24,1,1,8,8,0,0,0,63334194,0.04004,-0.00439,0.96362,0.96446,-0.00745,0.00158,-0.00034,0.00762,0.96446,0.00844,0.00933,3,21432,0,117,0.24842,0.15351,0.61793,100,1,94.552,93,1,3,14465,194960,0,0,0.000,15.387,11.138,0,0.000,37.903,15.059,0,0,2,0,7
PPG,1,1545,63350587,132,74609,79325,79431.641,-106.641,-104.727,0,0,0,0,75.00,75.00,0,0,0,100.00,0,0,24,1,1,9,9,0,0,0,63370633,0.03467,-0.00269,0.95825,0.95888,-0.00692,0.00185,-0.00141,0.00730,0.95992,0.00861,0.00805,3,12122,0,117,0.24842,0.15351,0.61793,100,1,94.552,93,1,3,2598,194960,0,0,0.000,15.387,11.138,0,0.000,37.903,15.059,0,0,2,0,7
PPG,1,1546,63390587,127,74637,79374,79431.062,-57.062,-77.109,0,0,0,0,75.00,75.00,0,0,0,100.00,0,0,24,1,1,10,10,0,0,0,63407044,0.03589,-0.00122,0.95703,0.95770,-0.00692,0.00185,-0.00141,0.00730,0.95888,0.00325,0.00770,3,12152,0,117,0.24842,0.15351,0.61793,100,1,94.552,93,1,3,2602,194960,0,0,0.000,15.387,11.138,0,0.000,37.903,15.059,0,0,2,0,7
PPG,1,1547,63430587,136,74629,79403,79430.781,-27.781,-55.797,0,0,0,0,75.00,75.00,0,0,0,100.00,0,0,24,1,1,11,11,0,0,0,63443502,0.04077,-0.00342,0.95654,0.95742,-0.00772,0.00212,-0.00061,0.00802,0.95919,0.00163,0.00820,3,12110,0,117,0.24842,0.15351,0.61793,100,1,94.552,93,1,3,2597,194960,0,0,0.000,15.387,11.138,0,0.000,37.903,15.059,0,0,2,0,7
PPG,1,1548,63470587,132,74628,79411,79430.586,-19.586,-37.367,0,0,0,0,75.00,75.00,0,0,0,100.00,0,0,24,1,1,12,12,0,0,0,63485046,0.03638,-0.00122,0.96021,0.96089,-0.00745,0.00185,-0.00114,0.00776,0.96116,0.00558,0.00776,3,12111,0,117,0.24842,0.15351,0.61793,100,1,94.552,93,1,3,4298,194960,0,0,0.000,15.387,11.138,0,0.000,37.903,15.059,0,0,2,0,7
PPG,1,1549,63510587,130,74637,79445,79430.727,14.273,-6.312,0,0,0,0,75.00,75.00,0,0,0,100.00,0,0,24,1,1,13,13,0,0,0,63524007,0.03662,0.00024,0.95557,0.95627,-0.00665,0.00079,-0.00141,0.00684,0.95787,0.00495,0.00857,3,12114,0,117,0.24842,0.15351,0.61793,100,1,94.552,93,1,3,2599,194960,0,0,0.000,15.387,11.138,0,0.000,37.903,15.059,0,0,2,0,7
PPG,1,1550,63550587,130,74645,79480,79431.219,48.781,37.508,0,0,0,0,75.00,75.00,0,0,0,100.00,0,0,24,1,1,14,14,0,0,0,63565622,0.03442,0.00000,0.95825,0.95887,-0.00798,0.00052,-0.00114,0.00808,0.96170,0.00543,0.00808,3,12140,0,117,0.24842,0.15351,0.61793,100,1,94.552,93,1,3,4293,194960,0,0,0.000,15.387,11.138,0,0.000,37.903,15.059,0,0,2,0,7
PPG,1,1551,63590587,129,74655,79507,79431.977,75.023,77.562,0,0,0,0,75.00,75.00,0,0,0,100.00,0,0,24,1,1,15,15,0,0,0,63604623,0.03564,-0.00122,0.96021,0.96087,-0.00718,0.00158,-0.00221,0.00768,0.96180,0.00670,0.00824,3,12163,0,117,0.24842,0.15351,0.61793,100,1,94.552,93,1,3,4332,194960,0,0,0.000,15.387,11.138,0,0.000,37.903,15.059,0,0,2,0,7
PPG,1,1552,63630587,130,74648,79534,79433.000,101.000,110.172,0,0,0,0,75.00,75.00,0,0,0,100.00,0,0,24,1,1,16,16,0,0,0,63643676,0.04150,-0.00488,0.95435,0.95526,-0.00798,0.00185,-0.00141,0.00831,0.96142,0.00616,0.00831,3,12129,0,117,0.24842,0.15351,0.61793,100,1,94.552,93,1,3,2599,194960,0,0,0.000,15.387,11.138,0,0.000,37.903,15.059,0,0,2,0,7
PPG,1,1553,63670587,129,74674,79575,79434.422,140.578,141.141,0,0,0,0,75.00,75.00,0,0,0,100.00,0,0,24,1,1,17,17,0,0,0,63685269,0.03955,-0.00317,0.95776,0.95859,-0.00745,0.00079,-0.00087,0.00754,0.95859,0.00473,0.00780,3,12131,0,117,0.24842,0.15351,0.61793,100,1,94.552,93,1,3,4296,194960,0,0,0.000,15.387,11.138,0,0.000,37.903,15.059,0,0,2,0,7
PPG,1,1554,63710587,129,74676,79590,79435.977,154.023,167.547,0,0,0,0,75.00,75.00,0,0,0,100.00,0,0,24,1,1,18,18,0,0,0,63724283,0.03540,-0.00195,0.96216,0.96281,-0.00772,0.00158,-0.00061,0.00790,0.96281,0.00659,0.00790,3,12123,0,117,0.24842,0.15351,0.61793,100,1,94.552,93,1,3,2599,194960,0,0,0.000,15.387,11.138,0,0.000,37.903,15.059,0,0,2,0,7
PPG,1,1555,63750587,130,74627,79467,79436.289,30.711,169.703,0,0,0,0,75.00,75.00,0,0,0,100.00,0,0,24,1,1,19,19,0,0,0,63765843,0.03125,-0.00269,0.95776,0.95828,-0.00798,0.00105,-0.00061,0.00807,0.95993,0.00413,0.00820,3,12124,0,117,0.24842,0.15351,0.61793,100,1,94.552,93,1,3,4306,194960,0,0,0.000,15.387,11.138,0,0.000,37.903,15.059,0,0,2,0,7
PPG,1,1556,63790587,143,74528,79183,79433.758,-250.758,129.320,0,0,0,0,75.00,75.00,0,0,0,100.00,0,0,24,1,1,20,20,0,0,0,63804823,0.03467,-0.00366,0.95630,0.95693,-0.00772,0.00105,-0.00087,0.00784,0.96177,0.00939,0.00802,3,12130,0,117,0.24842,0.15351,0.61793,100,1,94.552,93,1,3,4302,194960,0,0,0.000,15.387,11.138,0,0.000,37.903,15.059,0,0,2,0,7
PPG,1,1557,63830587,133,74471,79028,79429.703,-401.703,67.047,0,1,0,0,75.00,75.00,0,0,0,100.00,0,0,24,1,1,21,21,0,0,0,63843796,0.03662,-0.00049,0.95532,0.95602,-0.00772,0.00105,-0.00061,0.00781,0.95938,0.00284,0.00833,3,12118,0,117,0.24842,0.15351,0.61793,100,1,94.552,93,1,3,2594,194960,0,0,0.000,15.387,11.138,0,0.000,37.903,15.059,0,0,2,0,7
PPG,1,1558,63870587,129,74484,79050,79425.906,-375.906,4.562,0,0,0,0,75.00,75.00,0,0,0,100.00,0,0,24,1,1,22,22,0,0,0,63885387,0.04077,-0.00049,0.96045,0.96131,-0.00958,0.00105,-0.00087,0.00968,0.96270,0.00668,0.00968,3,12117,0,117,0.24842,0.15351,0.61793,100,1,94.552,93,1,3,4302,194960,0,0,0.000,15.387,11.138,0,0.000,37.903,15.059,0,0,2,0,7
PPG,1,1559,63910587,135,74511,79122,79422.867,-300.867,-50.641,0,0,0,0,75.00,75.00,0,0,0,100.00,0,0,24,1,1,23,23,0,0,0,63924451,0.03320,-0.00024,0.95557,0.95614,-0.00798,0.00238,-0.00087,0.00838,0.96120,0.01108,0.00838,3,12163,0,117,0.24842,0.15351,0.61793,100,1,94.552,93,1,3,2598,194960,0,0,0.000,15.387,11.138,0,0.000,37.903,15.059,0,0,2,0,7
PPG,1,1560,63950587,129,74535,79204,79420.680,-216.680,-99.938,0,0,0,0,75.00,75.00,0,0,0,100.00,0,0,24,1,1,24,24,0,0,0,63966003,0.03638,-0.00464,0.95825,0.95895,-0.00825,0.00212,0.00019,0.00852,0.96297,0.00576,0.00852,3,12114,0,117,0.24842,0.15351,0.61793,100,1,94.552,93,1,3,4295,194960,0,0,0.000,15.387,11.138,0,0.000,37.903,15.059,0,0,2,0,7
PPG,1,1561,63990587,135,74561,79266,79419.133,-153.133,-144.383,0,0,0,0,75.00,75.00,0,0,0,100.00,0,0,24,1,1,25,25,0,0,0,64005011,0.03857,-0.00684,0.95142,0.95222,-0.00798,0.00185,-0.00141,0.00831,0.95526,0.00369,0.00831,3,12115,0,117,0.24842,0.15351,0.61793,100,1,94.552,93,1,3,4311,194960,0,0,0.000,15.387,11.138,0,0.000,37.903,15.059,0,0,2,0,7
PPG,1,1562,64030587,129,74559,79272,79417.664,-145.664,-173.289,0,0,0,0,75.00,75.00,0,0,0,100.00,0,0,24,1,1,26,26,0,0,0,64044012,0.03711,-0.00610,0.95801,0.95875,-0.00772,0.00265,-0.00114,0.00824,0.96423,0.01201,0.00900,3,12119,0,117,0.24842,0.15351,0.61793,100,1,94.552,93,1,3,2597,194960,0,0,0.000,15.387,11.138,0,0.000,37.903,15.059,0,0,2,0,7
PPG,1,1563,64070587,151,74540,79202,79415.508,-213.508,-170.922,1,0,1,840,75.00,75.00,0,0,0,100.00,0,0,24,1,1,27,27,0,0,0,64085564,0.03711,-0.00391,0.96143,0.96215,-0.00798,0.00185,-0.00114,0.00827,0.96737,0.00522,0.00853,3,12109,0,117,0.24842,0.15351,0.61793,100,1,94.552,93,1,3,4295,194960,0,0,114.617,15.387,11.138,1,347.609,37.903,15.059,1,1,2,0,8
PPG,1,1564,64110587,126,74532,79195,79413.305,-218.305,-144.359,0,0,0,0,75.00,75.00,0,0,0,100.00,0,0,24,1,1,28,28,0,0,0,64124718,0.03833,-0.00220,0.95386,0.95463,-0.00718,0.00132,0.00019,0.00731,0.96441,0.00978,0.00837,3,12213,0,117,0.24842,0.15351,0.61793,100,1,94.552,93,1,3,4349,194960,0,0,0.000,15.392,11.149,0,0.000,37.981,15.128,0,0,2,0,8
PPG,1,1565,64150587,212,74539,79245,79411.625,-166.625,-112.508,0,0,0,0,75.00,75.00,0,0,0,100.00,0,0,24,1,1,29,29,0,0,0,64163955,0.03931,0.00049,0.95728,0.95808,-0.00745,0.00079,-0.00167,0.00768,0.96642,0.01179,0.00780,3,12106,0,117,0.24842,0.15351,0.61793,100,1,94.552,93,1,3,2594,194960,0,0,0.000,15.392,11.149,0,0.000,37.981,15.128,0,0,2,0,8
PPG,1,1566,64190587,582,74560,79318,79410.688,-92.688,-81.711,0,0,0,0,75.00,75.00,0,0,0,100.00,0,0,24,1,1,30,30,0,0,0,64205711,0.03687,-0.00171,0.95313,0.95384,-0.00692,0.00212,-0.00141,0.00737,0.95745,0.00361,0.00848,3,12117,0,117,0.23154,0.13785,0.59539,100,1,95.115,107,1,3,4296,194960,0,0,0.000,15.392,11.149,0,0.000,37.981,15.128,0,0,2,0,8
PPG,1,1567,64230587,181,74584,79371,79410.289,-39.289,-56.250,0,0,0,0,75.00,75.00,0,0,0,100.00,0,0,24,1,1,31,31,0,0,0,64245440,0.03931,-0.00366,0.95410,0.95492,-0.00772,0.00079,-0.00167,0.00793,0.95616,0.00232,0.00813,3,12127,0,117,0.23154,0.13785,0.59539,100,1,95.115,107,1,3,4362,194960,0,0,0.000,15.392,11.149,0,0.000,37.981,15.128,0,0,2,0,8
PPG,1,1568,64270587,127,74591,79395,79410.133,-15.133,-37.023,0,0,0,0,75.00,75.00,0,0,0,100.00,0,0,24,1,1,0,0,0,0,0,64284724,0.03833,-0.00342,0.96729,0.96805,-0.00692,0.00212,-0.00087,0.00729,0.96805,0.01289,0.00807,3,12278,0,117,0.23154,0.13785,0.59539,100,1,95.115,107,1,3,4308,194960,0,0,0.000,15.392,11.149,0,0.000,37.981,15.128,0,0,2,0,8
PPG,1,1569,64310587,136,74598,79440,79410.430,29.570,-12.773,0,0,0,0,75.00,75.00,0,0,0,100.00,0,0,24,1,1,1,1,0,0,0,64336042,0.03589,-0.00537,0.96021,0.96089,-0.00718,0.00132,-0.00141,0.00744,0.96186,0.00752,0.00744,3,24392,0,118,0.23154,0.13785,0.59539,100,1,95.115,107,1,3,14641,194960,0,0,0.000,15.392,11.149,0,0.000,37.981,15.128,0,0,2,0,8
PPG,1,1570,64350587,134,74603,79458,79410.906,47.094,24.898,0,0,0,0,75.00,75.00,0,0,0,100.00,0,0,24,1,1,2,2,0,0,0,64360583,0.03467,-0.00439,0.95947,0.96011,-0.00772,0.00158,-0.00221,0.00818,0.96011,0.00221,0.00818,2,12309,0,118,0.23154,0.13785,0.59539,100,1,95.115,107,1,3,2617,194960,0,0,0.000,15.392,11.149,0,0.000,37.981,15.128,0,0,2,0,8
PPG,1,1571,64390587,135,74600,79466,79411.461,54.539,65.664,0,0,0,0,75.00,75.00,0,0,0,100.00,0,0,24,1,1,3,3,0,0,0,64405155,0.03516,-0.00220,0.95630,0.95695,-0.00745,0.00212,-0.00114,0.00783,0.95921,0.00350,0.00857,3,12231,0,119,0.23154,0.13785,0.59539,100,1,95.115,107,1,3,4321,194960,0,0,0.000,15.392,11.149,0,0.000,37.981,15.128,0,0,2,0,8
PPG,1,1572,64430587,149,74620,79497,79412.312,84.688,103.508,0,0,0,0,75.00,75.00,0,0,0,100.00,0,0,24,1,1,4,4,0,0,0,64444529,0.03564,-0.00317,0.95703,0.95770,-0.00692,0.00212,-0.00221,0.00756,0.95770,0.00244,0.00831,3,12266,0,119,0.23154,0.13785,0.59539,100,1,95.115,107,1,3,2628,194960,0,0,0.000,15.392,11.149,0,0.000,37.981,15.128,0,0,2,0,8
PPG,1,1573,64470587,143,74633,79536,79413.547,122.453,136.609,0,0,0,0,75.00,75.00,0,0,0,100.00,0,0,24,1,1,5,5,0,0,0,64486672,0.04224,-0.00415,0.94897,0.94992,-0.00692,0.00238,-0.00007,0.00732,0.96084,0.01092,0.00782,3,12236,0,119,0.23154,0.13785,0.59539,100,1,95.115,107,1,3,4315,194960,0,0,0.000,15.392,11.149,0,0.000,37.981,15.128,0,0,2,0,8
PPG,1,1574,64510587,136,74631,79582,79415.234,166.766,167.148,0,0,0,0,75.00,75.00,0,0,0,100.00,0,0,24,1,1,6,6,0,0,0,64526006,0.04004,-0.00317,0.94946,0.95031,-0.00798,0.00212,-0.00167,0.00843,0.96449,0.01417,0.00843,3,12263,0,119,0.23154,0.13785,0.59539,100,1,95.115,107,1,3,4361,194960,0,0,0.000,15.392,11.149,0,0.000,37.981,15.128,0,0,2,0,8
PPG,1,1575,64550587,134,74610,79494,79416.023,77.977,179.938,0,0,0,0,75.00,75.00,0,0,0,100.00,0,0,24,1,1,7,7,0,0,0,64565359,0.03564,-0.00269,0.95825,0.95892,-0.00772,0.00185,-0.00087,0.00798,0.96141,0.00741,0.00798,3,12234,0,119,0.23154,0.13785,0.59539,100,1,95.115,107,1,3,4328,194960,0,0,0.000,15.392,11.149,0,0.000,37.981,15.128,0,0,2,0,8
PPG,1,1576,64590587,152,74510,79240,79414.266,-174.266,148.523,0,0,0,0,75.00,75.00,0,0,0,100.00,0,0,24,1,1,8,8,0,0,0,64604726,0.03662,-0.00073,0.95459,0.95529,-0.00772,0.00079,-0.00167,0.00793,0.95852,0.00325,0.00847,3,12245,0,119,0.23154,0.13785,0.59539,100,1,95.115,107,1,3,2633,194960,0,0,0.000,15.392,11.149,0,0.000,37.981,15.128,0,0,2,0,8
PPG,1,1577,64630587,132,74453,79052,79410.641,-358.641,89.320,0,1,0,0,75.00,75.00,0,0,0,100.00,0,0,24,1,1,9,9,0,0,0,64646756,0.03540,-0.00342,0.95630,0.95696,-0.00825,0.00158,-0.00194,0.00862,0.95821,0.00241,0.00862,3,12257,0,119,0.23154,0.13785,0.59539,100,1,95.115,107,1,3,4314,194960,0,0,0.000,15.392,11.149,0,0.000,37.981,15.128,0,0,2,0,8
PPG,1,1578,64670587,140,74440,79046,79406.992,-360.992,29.523,0,0,0,0,75.00,75.00,0,0,0,100.00,0,0,24,1,1,10,10,0,0,0,64685963,0.03979,-0.00488,0.95850,0.95933,-0.00745,0.00185,-0.00141,0.00780,0.96326,0.00784,0.00831,3,12220,0,119,0.23154,0.13785,0.59539,100,1,95.115,107,1,3,4326,194960,0,0,0.000,15.392,11.149,0,0.000,37.981,15.128,0,0,2,0,8
PPG,1,1579,64710587,194,74472,79134,79404.266,-270.266,-22.938,0,0,0,0,75.00,75.00,0,0,0,100.00,0,0,24,1,1,11,11,0,0,0,64725231,0.03931,-0.00146,0.96167,0.96247,-0.00718,0.00158,-0.00061,0.00738,0.96771,0.00810,0.00827,3,12231,0,119,0.23154,0.13785,0.59539,100,1,95.115,107,1,3,4329,194960,0,0,0.000,15.392,11.149,0,0.000,37.981,15.128,0,0,2,0,8
PPG,1,1580,64750587,130,74503,79218,79402.406,-184.406,-69.062,0,0,0,0,75.00,75.00,0,0,0,100.00,0,0,24,1,1,12,12,0,0,0,64764690,0.03735,-0.00537,0.96240,0.96314,-0.00772,0.00079,-0.00274,0.00823,0.96314,0.00567,0.00823,3,12242,0,119,0.23154,0.13785,0.59539,100,1,95.115,107,1,3,2645,194960,0,0,0.000,15.392,11.149,0,0.000,37.981,15.128,0,0,2,0,8
PPG,1,1581,64790587,130,74516,79304,79401.422,-97.422,-110.680,0,0,0,0,75.00,75.00,0,0,0,100.00,0,0,24,1,1,13,13,0,0,0,64806673,0.03979,-0.00195,0.95728,0.95810,-0.00745,0.00079,-0.00087,0.00754,0.95810,0.00637,0.00826,3,12246,0,119,0.23154,0.13785,0.59539,100,1,95.115,107,1,3,4333,194960,0,0,0.000,15.392,11.149,0,0.000,37.981,15.128,0,0,2,0,8
PPG,1,1582,64830587,138,74513,79277,79400.180,-123.180,-141.930,0,0,0,0,75.00,75.00,0,0,0,100.00,0,0,24,1,1,14,14,0,0,0,64846002,0.03760,-0.00269,0.95264,0.95338,-0.00745,0.00079,-0.00194,0.00774,0.96091,0.00753,0.00887,3,12250,0,119,0.23154,0.13785,0.59539,100,1,95.115,107,1,3,4326,194960,0,0,0.000,15.392,11.149,0,0.000,37.981,15.128,0,0,2,0,8
PPG,1,1583,64870587,152,74501,79216,79398.336,-182.336,-146.062,1,0,1,800,75.00,75.00,0,0,0,100.00,0,0,24,1,1,15,15,0,0,0,64885271,0.03662,-0.00562,0.95410,0.95482,-0.00585,0.00238,-0.00087,0.00638,0.96156,0.00817,0.00840,3,12237,0,119,0.23154,0.13785,0.59539,100,1,95.115,107,1,3,4332,194960,0,0,121.031,15.392,11.149,1,353.227,37.981,15.128,1,1,2,0,8
PPG,1,1584,64910587,129,74509,79228,79396.633,-168.633,-122.562,0,0,0,0,75.00,75.00,0,0,0,100.00,0,0,24,1,1,16,16,0,0,0,64924670,0.03906,-0.00195,0.95923,0.96003,-0.00745,0.00025,-0.00221,0.00777,0.96073,0.00643,0.00809,3,12247,0,119,0.23154,0.13785,0.59539,100,1,95.115,107,1,3,2617,194960,0,0,0.000,15.437,11.237,0,0.000,38.084,15.221,0,0,2,0,8
PPG,1,1585,64950587,130,74510,79289,79395.555,-106.555,-90.047,0,0,0,0,75.00,75.00,0,0,0,100.00,0,0,24,1,1,17,17,0,0,0,64966587,0.03857,0.00049,0.95605,0.95683,-0.00825,0.00158,-0.00167,0.00856,0.95683,0.00598,0.00856,3,12280,0,119,0.23154,0.13785,0.59539,100,1,95.115,107,1,3,4304,194960,0,0,0.000,15.437,11.237,0,0.000,38.084,15.221,0,0,2,0,8
PPG,1,1586,64990587,129,74537,79353,79395.133,-42.133,-60.508,0,0,0,0,75.00,75.00,0,0,0,100.00,0,0,24,1,1,18,18,0,0,0,65005535,0.03516,-0.00220,0.95996,0.96061,-0.00745,0.00052,-0.00087,0.00752,0.96061,0.00721,0.00761,3,12107,0,119,0.23154,0.13785,0.59539,100,1,95.115,107,1,3,4297,194960,0,0,0.000,15.437,11.237,0,0.000,38.084,15.221,0,0,2,0,8
PPG,1,1587,65030587,130,74554,79402,79395.203,6.797,-35.781,0,0,0,0,75.00,75.00,0,0,0,100.00,0,0,24,1,1,19,19,0,0,0,65044556,0.03882,-0.00098,0.95728,0.95806,-0.00798,0.00079,-0.00061,0.00804,0.95949,0.00800,0.00804,3,12184,0,119,0.23154,0.13785,0.59539,100,1,95.115,107,1,3,2616,194960,0,0,0.000,15.437,11.237,0,0.000,38.084,15.221,0,0,2,0,8
PPG,1,1588,65070587,133,74556,79422,79395.469,26.531,-20.273,0,0,0,0,75.00,75.00,0,0,0,100.00,0,0,24,1,1,20,20,0,0,0,65086138,0.03809,-0.00415,0.95654,0.95731,-0.00692,0.00238,-0.00061,0.00734,0.95777,0.00251,0.00822,3,12124,0,119,0.23154,0.13785,0.59539,100,1,95.115,107,1,3,4296,194960,0,0,0.000,15.437,11.237,0,0.000,38.084,15.221,0,0,2,0,8
PPG,1,1589,65110587,134,74559,79468,79396.195,71.805,5.609,0,0,0,0,75.00,75.00,0,0,0,100.00,0,0,24,1,1,21,21,0,0,0,65125106,0.03589,-0.00366,0.95581,0.95649,-0.00718,0.00052,-0.00114,0.00729,0.95958,0.00309,0.00808,3,12127,0,119,0.23154,0.13785,0.59539,100,1,95.115,107,1,3,4298,194960,0,0,0.000,15.437,11.237,0,0.000,38.084,15.221,0,0,2,0,8
PPG,1,1590,65150587,128,74570,79483,79397.062,85.938,42.508,0,0,0,0,75.00,75.00,0,0,0,100.00,0,0,24,1,1,22,22,0,0,0,65164080,0.03760,-0.00220,0.95532,0.95606,-0.00638,0.00185,-0.00061,0.00667,0.95606,0.00334,0.00733,3,12125,0,119,0.23154,0.13785,0.59539,100,1,95.115,107,1,3,2600,194960,0,0,0.000,15.437,11.237,0,0.000,38.084,15.221,0,0,2,0,8
PPG,1,1591,65190587,544,74579,79509,79398.180,110.820,80.500,0,0,0,0,75.00,75.00,0,0,0,100.00,0,0,24,2,2,24,24,0,0,0,65264773,0.03394,-0.00146,0.95801,0.95861,-0.00772,0.00158,-0.00141,0.00800,0.96043,0.00436,0.00831,4,59039,0,123,0.20764,0.11200,0.53940,100,1,96.515,136,1,3,58950,194960,0,0,0.000,15.437,11.237,0,0.000,38.084,15.221,0,0,2,0,8
PPG,1,1592,65230587,86,74575,79533,79399.531,133.469,113.562,0,0,0,0,75.00,75.00,0,0,0,100.00,0,0,24,2,2,24,24,0,0,0,65264773,0.03394,-0.00146,0.95801,0.95861,-0.00772,0.00158,-0.00141,0.00800,0.00000,0.00000,0.00000,0,59039,0,123,0.20764,0.11200,0.53940,100,1,96.515,136,1,3,58950,194960,0,0,0.000,15.437,11.237,0,0.000,38.084,15.221,0,0,2,0,8
PPG,1,1593,65270587,138,74614,79580,79401.336,178.664,143.789,0,0,0,0,75.00,75.00,0,0,0,100.00,0,0,24,1,1,25,25,0,0,0,65291382,0.03687,-0.00464,0.96387,0.96458,-0.00745,0.00132,-0.00087,0.00762,0.96458,0.00859,0.00779,2,12566,0,123,0.20764,0.11200,0.53940,100,1,96.515,136,1,3,2613,194960,0,0,0.000,15.437,11.237,0,0.000,38.084,15.221,0,0,2,0,8
PPG,1,1594,65310587,134,74609,79603,79403.352,199.648,171.453,0,0,0,0,75.00,75.00,0,0,0,100.00,0,0,24,1,1,26,26,0,0,0,65337083,0.03979,-0.00220,0.95483,0.95567,-0.00718,0.00265,-0.00221,0.00797,0.96237,0.00409,0.00841,3,21444,0,124,0.20764,0.11200,0.53940,100,1,96.515,136,1,3,14473,194960,0,0,0.000,15.437,11.237,0,0.000,38.084,15.221,0,0,2,0,8
PPG,1,1595,65350587,129,74603,79564,79404.961,159.039,188.242,0,0,0,0,75.00,75.00,0,0,0,100.00,0,0,24,1,1,27,27,0,0,0,65361428,0.03345,-0.00171,0.95776,0.95835,-0.00931,0.00105,-0.00087,0.00941,0.96634,0.01067,0.00941,2,12168,0,124,0.20764,0.11200,0.53940,100,1,96.515,136,1,3,2585,194960,0,0,0.000,15.437,11.237,0,0.000,38.084,15.221,0,0,2,0,8
PPG,1,1596,65390587,149,74494,79266,79403.570,-137.570,158.078,0,1,0,0,75.00,75.00,0,0,0,100.00,0,0,24,1,1,28,28,0,0,0,65405590,0.03564,-0.00073,0.95825,0.95891,-0.00692,0.00132,-0.00141,0.00718,0.95891,0.00407,0.00872,3,12127,0,124,0.20764,0.11200,0.53940,100,1,96.515,136,1,3,4298,194960,0,0,0.000,15.437,11.237,0,0.000,38.084,15.221,0,0,2,0,8
PPG,1,1597,65430587,127,74405,79004,79399.578,-395.578,92.047,0,0,0,0,75.00,75.00,0,0,0,100.00,0,0,24,1,1,29,29,0,0,0,65444585,0.03955,-0.00146,0.95508,0.95590,-0.00692,0.00079,-0.00141,0.00710,0.96033,0.00396,0.00761,3,12138,0,124,0.20764,0.11200,0.53940,100,1,96.515,136,1,3,2625,194960,0,0,0.000,15.437,11.237,0,0.000,38.084,15.221,0,0,2,0,8
PPG,1,1598,65470587,129,74394,78965,79395.234,-430.234,18.391,0,0,0,0,75.00,75.00,0,0,0,100.00,0,0,24,1,1,30,30,0,0,0,65486526,0.03784,-0.00171,0.95923,0.95998,-0.00745,0.00158,-0.00141,0.00775,0.96114,0.00494,0.00797,3,12105,0,124,0.20764,0.11200,0.53940,100,1,96.515,136,1,3,4298,194960,0,0,0.000,15.437,11.237,0,0.000,38.084,15.221,0,0,2,0,8
PPG,1,1599,65510587,127,74387,78990,79391.180,-401.180,-51.992,0,0,0,0,75.00,75.00,0,0,0,100.00,0,0,24,1,1,31,31,0,0,0,65525537,0.03687,-0.00464,0.95410,0.95482,-0.00772,0.00105,-0.00167,0.00797,0.95482,0.00707,0.00797,3,12103,0,124,0.20764,0.11200,0.53940,100,1,96.515,136,1,3,4294,194960,0,0,0.000,15.437,11.237,0,0.000,38.084,15.221,0,0,2,0,8
PPG,1,1600,65550587,129,74400,79047,79387.734,-340.734,-119.578,0,0,0,0,75.00,75.00,0,0,0,100.00,0,0,24,1,1,0,0,0,0,0,65564569,0.03564,-0.00537,0.95532,0.95600,-0.00798,0.00212,-0.00114,0.00834,0.96364,0.00881,0.00848,3,12178,0,124,0.20764,0.11200,0.53940,100,1,96.515,136,1,3,2600,194960,0,0,0.000,15.437,11.237,0,0.000,38.084,15.221,0,0,2,0,8
PPG,1,1601,65590587,131,74434,79132,79385.180,-253.180,-178.258,0,0,0,0,75.00,75.00,0,0,0,100.00,0,0,24,1,1,1,1,0,0,0,65606118,0.03516,-0.00293,0.95044,0.95109,-0.00745,0.00079,-0.00087,0.00754,0.96064,0.00954,0.00754,3,12116,0,124,0.20764,0.11200,0.53940,100,1,96.515,136,1,3,4298,194960,0,0,0.000,15.437,11.237,0,0.000,38.084,15.221,0,0,2,0,8
PPG,1,1602,65630587,152,74460,79153,79382.859,-229.859,-230.781,0,0,0,0,75.00,75.00,0,0,0,100.00,0,0,24,1,1,2,2,0,0,0,65645044,0.03540,-0.00244,0.96021,0.96086,-0.00798,0.00185,-0.00141,0.00831,0.96114,0.00675,0.00831,3,12110,0,124,0.20764,0.11200,0.53940,100,1,96.515,136,1,3,2598,194960,0,0,0.000,15.437,11.237,0,0.000,38.084,15.221,0,0,2,0,8
PPG,1,1603,65670587,149,74430,79121,79380.242,-259.242,-246.742,1,0,1,800,75.00,75.00,0,0,0,100.00,0,0,24,1,1,3,3,0,0,0,65686655,0.03882,-0.00610,0.96167,0.96247,-0.00798,0.00185,-0.00114,0.00827,0.96247,0.01088,0.00879,3,12112,0,124,0.20764,0.11200,0.53940,100,1,96.515,136,1,3,4299,194960,0,0,118.539,15.437,11.237,1,334.305,38.084,15.221,1,1,2,0,8
PPG,1,1604,65710587,126,74416,79091,79377.352,-286.352,-227.461,0,0,0,0,75.00,75.00,0,0,0,100.00,0,0,24,1,1,4,4,0,0,0,65725662,0.03833,-0.00342,0.95728,0.95805,-0.00692,0.00185,-0.00141,0.00730,0.96471,0.00666,0.00764,3,12113,0,124,0.20764,0.11200,0.53940,100,1,96.515,136,1,3,4304,194960,0,0,0.000,15.461,11.283,0,0.000,38.056,15.196,0,0,2,0,8
PPG,1,1605,65750587,127,74427,79139,79374.969,-235.969,-195.109,0,0,0,0,75.00,75.00,0,0,0,100.00,0,0,24,1,1,5,5,0,0,0,65764695,0.03906,0.00122,0.95825,0.95905,-0.00772,0.00132,-0.00061,0.00785,0.95905,0.00559,0.00800,3,12168,0,124,0.20764,0.11200,0.53940,100,1,96.515,136,1,3,2607,194960,0,0,0.000,15.461,11.283,0,0.000,38.056,15.196,0,0,2,0,8
PPG,1,1606,65790587,129,74470,79213,79373.352,-160.352,-156.250,0,0,0,0,75.00,75.00,0,0,0,100.00,0,0,24,1,1,6,6,0,0,0,65806250,0.03271,-0.00195,0.95996,0.96052,-0.00878,0.00132,-0.00221,0.00915,0.96135,0.00230,0.00915,3,12116,0,124,0.20764,0.11200,0.53940,100,1,96.515,136,1,3,4295,194960,0,0,0.000,15.461,11.283,0,0.000,38.056,15.196,0,0,2,0,8
PPG,1,1607,65830587,128,74479,79265,79372.266,-107.266,-118.258,0,0,0,0,75.00,75.00,0,0,0,100.00,0,0,24,1,1,7,7,0,0,0,65845174,0.03711,0.00000,0.95801,0.95873,-0.00718,0.00185,-0.00194,0.00767,0.95873,0.00698,0.00767,3,12106,0,124,0.20764,0.11200,0.53940,100,1,96.515,136,1,3,2600,194960,0,0,0.000,15.461,11.283,0,0.000,38.056,15.196,0,0,2,0,8
PPG,1,1608,65870587,129,74488,79330,79371.844,-41.844,-85.367,0,0,0,0,75.00,75.00,0,0,0,100.00,0,0,24,1,1,8,8,0,0,0,65886851,0.03687,0.00049,0.95752,0.95823,-0.00798,0.00132,-0.00061,0.00811,0.95823,0.00438,0.00811,3,12117,0,124,0.20764,0.11200,0.53940,100,1,96.515,136,1,3,4301,194960,0,0,0.000,15.461,11.283,0,0.000,38.056,15.196,0,0,2,0,8
PPG,1,1609,65910587,127,74522,79374,79371.867,2.133,-49.102,0,0,0,0,75.00,75.00,0,0,0,100.00,0,0,24,1,1,9,9,0,0,0,65925789,0.03955,-0.00342,0.95898,0.95981,-0.00665,0.00025,-0.00167,0.00686,0.96003,0.00245,0.00729,3,12114,0,124,0.20764,0.11200,0.53940,100,1,96.515,136,1,3,4304,194960,0,0,0.000,15.461,11.283,0,0.000,38.056,15.196,0,0,2,0,8
PPG,1,1610,65950587,129,74528,79426,79372.406,53.594,-2.680,0,0,0,0,75.00,75.00,0,0,0,100.00,0,0,24,1,1,10,10,0,0,0,65964764,0.04370,-0.00464,0.95386,0.95487,-0.00745,0.00238,-0.00114,0.00790,0.95963,0.00414,0.00790,3,12152,0,124,0.20764,0.11200,0.53940,100,1,96.515,136,1,3,2601,194960,0,0,0.000,15.461,11.283,0,0.000,38.056,15.196,0,0,2,0,8
PPG,1,1611,65990587,127,74524,79442,79373.102,68.898,50.812,0,0,0,0,75.00,75.00,0,0,0,100.00,0,0,24,1,1,11,11,0,0,0,66006292,0.03809,-0.00244,0.95752,0.95828,-0.00852,0.00105,-0.00034,0.00859,0.96662,0.01175,0.00859,3,12118,0,124,0.20764,0.11200,0.53940,100,1,96.515,136,1,3,4304,194960,0,0,0.000,15.461,11.283,0,0.000,38.056,15.196,0,0,2,0,8
PPG,1,1612,66030587,130,74528,79450,79373.867,76.133,99.391,0,0,0,0,75.00,75.00,0,0,0,100.00,0,0,24,1,1,12,12,0,0,0,66045307,0.03394,-0.00464,0.95508,0.95569,-0.00718,0.00158,-0.00114,0.00744,0.95633,0.00214,0.00764,3,12117,0,124,0.20764,0.11200,0.53940,100,1,96.515,136,1,3,2595,194960,0,0,0.000,15.461,11.283,0,0.000,38.056,15.196,0,0,2,0,8
PPG,1,1613,66070587,127,74519,79481,79374.938,106.062,142.633,0,0,0,0,75.00,75.00,0,0,0,100.00,0,0,24,1,1,13,13,0,0,0,66086921,0.03711,-0.00171,0.95923,0.95995,-0.00798,0.00158,-0.00114,0.00822,0.96092,0.00288,0.00880,3,12119,0,124,0.20764,0.11200,0.53940,100,1,96.515,136,1,3,4300,194960,0,0,0.000,15.461,11.283,0,0.000,38.056,15.196,0,0,2,0,8
PPG,1,1614,66110587,131,74539,79518,79376.367,141.633,183.023,0,0,0,0,75.00,75.00,0,0,0,100.00,0,0,24,1,1,14,14,0,0,0,66125952,0.04126,-0.00293,0.96265,0.96353,-0.00772,0.00105,-0.00167,0.00797,0.96353,0.00363,0.00863,3,12119,0,124,0.20764,0.11200,0.53940,100,1,96.515,136,1,3,4301,194960,0,0,0.000,15.461,11.283,0,0.000,38.056,15.196,0,0,2,0,8
PPG,1,1615,66150587,128,74555,79556,79378.164,177.836,215.711,0,0,0,0,75.00,75.00,0,0,0,100.00,0,0,24,1,1,15,15,0,0,0,66164940,0.04175,-0.00122,0.95630,0.95721,-0.00718,0.00132,-0.00087,0.00736,0.96203,0.00249,0.00752,3,12146,0,124,0.20764,0.11200,0.53940,100,1,96.515,136,1,3,2594,194960,0,0,0.000,15.461,11.283,0,0.000,38.056,15.196,0,0,2,0,8
PPG,1,1616,66190587,546,74505,79425,79378.633,46.367,215.039,0,0,0,0,75.00,75.00,0,0,0,100.00,0,0,24,1,1,16,16,0,0,0,66206496,0.03760,-0.00610,0.95874,0.95950,-0.00718,0.00185,-0.00034,0.00743,0.95950,0.00464,0.00796,3,12109,0,124,0.21609,0.10844,0.50185,100,1,97.454,150,1,3,4294,194960,0,0,0.000,15.461,11.283,0,0.000,38.056,15.196,0,0,2,0,8
PPG,1,1617,66230587,178,74404,79125,79376.094,-251.094,165.992,0,0,0,0,75.00,75.00,0,0,0,100.00,0,0,24,1,1,17,17,0,0,0,66245900,0.04053,-0.00293,0.96021,0.96106,-0.00772,0.00052,-0.00167,0.00791,0.96285,0.00335,0.00845,3,12111,0,124,0.21609,0.10844,0.50185,100,1,97.454,150,1,3,4295,194960,0,0,0.000,15.461,11.283,0,0.000,38.056,15.196,0,0,2,0,8
PPG,1,1618,66270587,130,74348,78953,79371.859,-418.859,96.742,0,0,0,0,75.00,75.00,0,0,0,100.00,0,0,24,1,1,18,18,0,0,0,66284935,0.03979,-0.00269,0.95410,0.95493,-0.00798,0.00132,-0.00141,0.00821,0.96482,0.00988,0.00821,3,12108,0,124,0.21609,0.10844,0.50185,100,1,97.454,150,1,3,2594,194960,0,0,0.000,15.461,11.283,0,0.000,38.056,15.196,0,0,2,0,8
PPG,1,1619,66310587,138,74352,78960,79367.742,-407.742,28.242,0,1,0,0,75.00,75.00,0,0,0,100.00,0,0,24,1,1,19,19,0,0,0,66338375,0.04004,-0.00488,0.95850,0.95934,-0.00692,0.00212,-0.00221,0.00756,0.96126,0.00329,0.00756,3,24016,0,125,0.21609,0.10844,0.50185,100,1,97.454,150,1,3,14445,194960,0,0,0.000,15.461,11.283,0,0.000,38.056,15.196,0,0,2,0,8
PPG,1,1620,66350587,132,74351,78981,79363.875,-382.875,-39.891,0,0,0,0,75.00,75.00,0,0,0,100.00,0,0,24,1,1,20,20,0,0,0,66362719,0.03931,-0.00342,0.95435,0.95516,-0.00692,0.00105,-0.00114,0.00709,0.95606,0.00328,0.00709,2,12181,0,125,0.21609,0.10844,0.50185,100,1,97.454,150,1,3,2592,194960,0,0,0.000,15.461,11.283,0,0.000,38.056,15.196,0,0,2,0,8
PPG,1,1621,66390587,130,74384,79058,79360.812,-302.812,-101.906,0,0,0,0,75.00,75.00,0,0,0,100.00,0,0,24,1,1,21,21,0,0,0,66406918,0.03687,-0.00024,0.95654,0.95725,-0.00798,0.00158,-0.00061,0.00816,0.95727,0.00120,0.00860,3,12119,0,125,0.21609,0.10844,0.50185,100,1,97.454,150,1,3,4299,194960,0,0,0.000,15.461,11.283,0,0.000,38.056,15.196,0,0,2,0,8
PPG,1,1622,66430587,130,74421,79195,79359.156,-164.156,-155.578,0,0,0,0,75.00,75.00,0,0,0,100.00,0,0,24,1,1,22,22,0,0,0,66445955,0.03418,-0.00488,0.95752,0.95814,-0.00692,-0.00001,-0.00061,0.00694,0.96367,0.00553,0.00764,3,12112,0,125,0.21609,0.10844,0.50185,100,1,97.454,150,1,3,4301,194960,0,0,0.000,15.461,11.283,0,0.000,38.056,15.196,0,0,2,0,8
PPG,1,1623,66470587,149,74408,79184,79357.406,-173.406,-193.156,1,0,1,800,75.00,75.00,0,0,0,100.00,0,0,24,1,1,23,23,0,0,0,66485107,0.04053,-0.00879,0.96021,0.96110,-0.00745,0.00185,-0.00167,0.00786,0.96192,0.00274,0.00786,3,12284,0,125,0.21609,0.10844,0.50185,100,1,97.454,150,1,3,2597,194960,0,0,154.000,15.461,11.283,1,462.453,38.056,15.196,1,1,2,0,8
PPG,1,1624,66510587,127,74383,79099,79354.820,-255.820,-197.273,0,0,0,0,75.00,75.00,0,0,0,100.00,0,0,24,1,1,24,24,0,0,0,66526903,0.03589,-0.00439,0.95728,0.95796,-0.00931,0.00292,-0.00061,0.00978,0.95893,0.00394,0.00978,3,12192,0,125,0.21609,0.10844,0.50185,100,1,97.454,150,1,3,4297,194960,0,0,0.000,15.703,11.758,0,0.000,38.833,15.894,0,0,2,0,8
PPG,1,1625,66550587,134,74373,79084,79352.109,-268.109,-175.812,0,0,0,0,75.00,75.00,0,0,0,100.00,0,0,24,1,1,25,25,0,0,0,66566081,0.04004,-0.00342,0.95728,0.95812,-0.00665,0.00318,-0.00087,0.00742,0.96240,0.01104,0.00754,3,12350,0,125,0.21609,0.10844,0.50185,100,1,97.454,150,1,3,4342,194960,0,0,0.000,15.703,11.758,0,0.000,38.833,15.894,0,0,2,0,8
PPG,1,1626,66590587,130,74409,79187,79350.461,-163.461,-142.078,0,0,0,0,75.00,75.00,0,0,0,100.00,0,0,24,1,1,26,26,0,0,0,66605447,0.03735,0.00098,0.96240,0.96313,-0.00772,0.00052,-0.00034,0.00774,0.96313,0.00500,0.00782,3,12242,0,125,0.21609,0.10844,0.50185,100,1,97.454,150,1,3,2669,194960,0,0,0.000,15.703,11.758,0,0.000,38.833,15.894,0,0,2,0,8
PPG,1,1627,66630587,143,74432,79281,79349.766,-68.766,-100.023,0,0,0,0,75.00,75.00,0,0,0,100.00,0,0,24,1,1,27,27,0,0,0,66647454,0.03833,-0.00073,0.95874,0.95951,-0.00825,0.00105,-0.00087,0.00836,0.96065,0.00478,0.00886,3,12211,0,125,0.21609,0.10844,0.50185,100,1,97.454,150,1,3,4314,194960,0,0,0.000,15.703,11.758,0,0.000,38.833,15.894,0,0,2,0,8
PPG,1,1628,66670587,140,74449,79320,79349.469,-29.469,-62.094,0,0,0,0,75.00,75.00,0,0,0,100.00,0,0,24,1,1,28,28,0,0,0,66686819,0.04077,-0.00586,0.95752,0.95841,-0.00718,0.00132,-0.00061,0.00733,0.96049,0.00138,0.00733,3,12273,0,125,0.21609,0.10844,0.50185,100,1,97.454,150,1,3,4350,194960,0,0,0.000,15.703,11.758,0,0.000,38.833,15.894,0,0,2,0,8
PPG,1,1629,66710587,128,74471,79375,79349.727,25.273,-36.430,0,0,0,0,75.00,75.00,0,0,0,100.00,0,0,24,1,1,29,29,0,0,0,66726197,0.04175,-0.00122,0.95361,0.95453,-0.00798,0.00158,-0.00087,0.00819,0.95845,0.00392,0.00819,3,12258,0,125,0.21609,0.10844,0.50185,100,1,97.454,150,1,3,4326,194960,0,0,0.000,15.703,11.758,0,0.000,38.833,15.894,0,0,2,0,8
PPG,1,1630,66750587,136,74483,79411,79350.336,60.664,-3.250,0,0,0,0,75.00,75.00,0,0,0,100.00,0,0,24,1,1,30,30,0,0,0,66765442,0.03687,-0.00342,0.95703,0.95775,-0.00745,0.00079,-0.00061,0.00752,0.96058,0.00512,0.00765,3,12233,0,125,0.21609,0.10844,0.50185,100,1,97.454,150,1,3,2637,194960,0,0,0.000,15.703,11.758,0,0.000,38.833,15.894,0,0,2,0,8
PPG,1,1631,66790587,136,74488,79445,79351.281,93.719,46.031,0,0,0,0,75.00,75.00,0,0,0,100.00,0,0,24,1,1,31,31,0,0,0,66807426,0.04077,-0.00317,0.96045,0.96132,-0.00745,0.00238,-0.00114,0.00790,0.96132,0.00461,0.00873,3,12264,0,125,0.21609,0.10844,0.50185,100,1,97.454,150,1,3,4316,194960,0,0,0.000,15.703,11.758,0,0.000,38.833,15.894,0,0,2,0,8
PPG,1,1632,66830587,129,74498,79482,79352.586,129.414,101.289,0,0,0,0,75.00,75.00,0,0,0,100.00,0,0,24,1,1,0,0,0,0,0,66846703,0.03784,-0.00098,0.96045,0.96119,-0.00772,0.00079,-0.00167,0.00793,0.96119,0.00844,0.00793,3,12261,0,125,0.21609,0.10844,0.50185,100,1,97.454,150,1,3,4332,194960,0,0,0.000,15.703,11.758,0,0.000,38.833,15.894,0,0,2,0,8
PPG,1,1633,66870587,136,74513,79493,79353.992,139.008,144.398,0,0,0,0,75.00,75.00,0,0,0,100.00,0,0,24,1,1,1,1,0,0,0,66886073,0.03687,-0.00342,0.95752,0.95824,-0.00692,0.00212,-0.00141,0.00737,0.96151,0.00329,0.00781,3,12310,0,125,0.21609,0.10844,0.50185,100,1,97.454,150,1,3,4353,194960,0,0,0.000,15.703,11.758,0,0.000,38.833,15.894,0,0,2,0,8
PPG,1,1634,66910587,136,74515,79534,79355.789,178.211,179.742,0,0,0,0,75.00,75.00,0,0,0,100.00,0,0,24,1,1,2,2,0,0,0,66925324,0.03882,-0.00024,0.95459,0.95538,-0.00665,0.00158,-0.00141,0.00698,0.95729,0.00296,0.00787,3,12227,0,125,0.21609,0.10844,0.50185,100,1,97.454,150,1,3,2627,194960,0,0,0.000,15.703,11.758,0,0.000,38.833,15.894,0,0,2,0,8
PPG,1,1635,66950587,128,74549,79586,79358.094,227.906,216.242,0,0,0,0,75.00,75.00,0,0,0,100.00,0,0,24,1,1,3,3,0,0,0,66967207,0.04077,-0.00317,0.95923,0.96010,-0.00745,0.00105,-0.00114,0.00761,0.96010,0.00664,0.00787,3,12221,0,125,0.21609,0.10844,0.50185,100,1,97.454,150,1,3,4328,194960,0,0,0.000,15.703,11.758,0,0.000,38.833,15.894,0,0,2,0,8
PPG,1,1636,66990587,129,74550,79639,79360.906,278.094,243.258,0,0,0,0,75.00,75.00,0,0,0,100.00,0,0,24,1,1,4,4,0,0,0,67006548,0.03687,0.00098,0.95801,0.95872,-0.00612,0.00079,-0.00114,0.00627,0.96535,0.00525,0.00765,3,12265,0,125,0.21609,0.10844,0.50185,100,1,97.454,150,1,3,4326,194960,0,0,0.000,15.703,11.758,0,0.000,38.833,15.894,0,0,2,0,8
PPG,1,1637,67030587,128,74572,79685,79364.148,320.852,254.398,0,0,0,0,75.00,75.00,0,0,0,100.00,0,0,24,1,1,5,5,0,0,0,67045801,0.03979,-0.00317,0.95264,0.95347,-0.00718,0.00212,-0.00114,0.00758,0.95916,0.00480,0.00758,3,12256,0,125,0.21609,0.10844,0.50185,100,1,97.454,150,1,3,4351,194960,0,0,0.000,15.703,11.758,0,0.000,38.833,15.894,0,0,2,0,8
PPG,1,1638,67070587,153,74541,79583,79366.336,216.664,242.609,0,1,0,0,75.00,75.00,0,0,0,100.00,0,0,24,1,1,6,6,0,0,0,67085123,0.03882,-0.00342,0.95752,0.95831,-0.00638,0.00132,-0.00167,0.00673,0.95831,0.00393,0.00803,3,12265,0,125,0.21609,0.10844,0.50185,100,1,97.454,150,1,3,2637,194960,0,0,0.000,15.703,11.758,0,0.000,38.833,15.894,0,0,2,0,8
PPG,1,1639,67110587,136,74427,79284,79365.516,-81.516,198.133,0,0,0,0,75.00,75.00,0,0,0,100.00,0,0,24,1,1,7,7,0,0,0,67127078,0.03784,-0.00439,0.95679,0.95755,-0.00852,0.00105,-0.00141,0.00869,0.95755,0.00229,0.00869,3,12257,0,125,0.21609,0.10844,0.50185,100,1,97.454,150,1,3,4341,194960,0,0,0.000,15.703,11.758,0,0.000,38.833,15.894,0,0,2,0,8
PPG,1,1640,67150587,128,74375,79109,79362.953,-253.953,136.867,0,0,0,0,75.00,75.00,0,0,0,100.00,0,0,24,1,1,8,8,0,0,0,67166351,0.03613,-0.00562,0.96045,0.96115,-0.00745,0.00132,-0.00007,0.00757,0.96679,0.00925,0.00762,3,12264,0,125,0.21609,0.10844,0.50185,100,1,97.454,150,1,3,4374,194960,0,0,0.000,15.703,11.758,0,0.000,38.833,15.894,0,0,2,0,8
PPG,1,1641,67190587,529,74378,79111,79360.438,-249.438,73.789,0,0,0,0,75.00,75.00,0,0,0,100.00,0,0,24,1,1,9,9,0,0,0,67205448,0.03931,-0.00073,0.96045,0.96125,-0.00745,0.00238,-0.00114,0.00790,0.96125,0.00366,0.00885,3,12153,0,125,0.23380,0.11112,0.47528,100,1,98.118,125,1,3,2668,194960,0,0,0.000,15.703,11.758,0,0.000,38.833,15.894,0,0,2,0,8
PPG,1,1642,67230587,181,74390,79151,79358.344,-207.344,13.852,0,0,0,0,75.00,75.00,0,0,0,100.00,0,0,24,1,1,10,10,0,0,0,67247675,0.04053,-0.00708,0.96069,0.96157,-0.00798,0.00132,-0.00087,0.00814,0.96157,0.00687,0.00879,3,12133,0,125,0.23380,0.11112,0.47528,100,1,98.118,125,1,3,4301,194960,0,0,0.000,15.703,11.758,0,0.000,38.833,15.894,0,0,2,0,8
PPG,1,1643,67270587,129,74391,79200,79356.758,-156.758,-49.664,0,0,0,0,75.00,75.00,0,0,0,100.00,0,0,24,1,1,11,11,0,0,0,67286761,0.03882,-0.00610,0.95093,0.95174,-0.00692,0.00079,-0.00114,0.00705,0.95997,0.00824,0.00786,3,12142,0,125,0.23380,0.11112,0.47528,100,1,98.118,125,1,3,4294,194960,0,0,0.000,15.703,11.758,0,0.000,38.833,15.894,0,0,2,0,8
PPG,1,1644,67310587,137,74428,79282,79356.008,-74.008,-116.391,0,0,0,0,75.00,75.00,0,0,0,100.00,0,0,24,1,1,12,12,0,0,0,67337719,0.04053,-0.00488,0.95947,0.96034,-0.00692,0.00052,-0.00247,0.00736,0.96034,0.00812,0.00749,3,24040,0,126,0.23380,0.11112,0.47528,100,1,98.118,125,1,3,14464,194960,0,0,0.000,15.703,11.758,0,0.000,38.833,15.894,0,0,2,0,8
PPG,1,1645,67350587,153,74432,79276,79355.211,-79.211,-169.844,1,0,1,880,75.00,75.00,0,0,0,100.00,0,0,24,1,1,13,13,0,0,0,67362071,0.03931,-0.00562,0.95532,0.95615,-0.00638,0.00158,-0.00087,0.00664,0.95707,0.00327,0.00693,2,12175,0,126,0.23380,0.11112,0.47528,100,1,98.118,125,1,3,2589,194960,0,0,157.586,15.703,11.758,1,451.672,38.833,15.894,1,1,2,0,8
PPG,1,1646,67390587,128,74393,79218,79353.836,-135.836,-180.820,0,0,0,0,75.00,75.00,0,0,0,100.00,0,0,24,1,1,14,14,0,0,0,67406387,0.03979,-0.00220,0.95532,0.95615,-0.00772,0.00158,-0.00007,0.00788,0.96041,0.00427,0.00835,3,12123,0,126,0.23380,0.11112,0.47528,100,1,98.118,125,1,3,4301,194960,0,0,0.000,15.938,12.217,0,0.000,39.445,16.443,0,0,2,0,8
PPG,1,1647,67430587,130,74415,79252,79352.820,-100.820,-158.938,0,0,0,0,75.00,75.00,0,0,0,100.00,0,0,24,1,1,15,15,0,0,0,67445355,0.03564,-0.00220,0.96045,0.96111,-0.00745,0.00105,-0.00007,0.00752,0.96375,0.00760,0.00752,3,12122,0,126,0.23380,0.11112,0.47528,100,1,98.118,125,1,3,2601,194960,0,0,0.000,15.938,12.217,0,0.000,39.445,16.443,0,0,2,0,8
PPG,1,1648,67470587,132,74444,79324,79352.531,-28.531,-128.711,0,0,0,0,75.00,75.00,0,0,0,100.00,0,0,24,1,1,16,16,0,0,0,67486979,0.03589,-0.00073,0.95630,0.95697,-0.00745,0.00158,-0.00141,0.00775,0.95799,0.00463,0.00775,3,12124,0,126,0.23380,0.11112,0.47528,100,1,98.118,125,1,3,4327,194960,0,0,0.000,15.938,12.217,0,0.000,39.445,16.443,0,0,2,0,8
PPG,1,1649,67510587,129,74482,79402,79353.023,48.977,-94.211,0,0,0,0,75.00,75.00,0,0,0,100.00,0,0,24,1,1,17,17,0,0,0,67525976,0.04150,-0.00366,0.95410,0.95501,-0.00772,0.00132,0.00019,0.00783,0.96044,0.00542,0.00784,3,12124,0,126,0.23380,0.11112,0.47528,100,1,98.118,125,1,3,4301,194960,0,0,0.000,15.938,12.217,0,0.000,39.445,16.443,0,0,2,0,8
PPG,1,1650,67550587,131,74497,79462,79354.109,107.891,-59.328,0,0,0,0,75.00,75.00,0,0,0,100.00,0,0,24,1,1,18,18,0,0,0,67564924,0.03589,0.00024,0.96045,0.96112,-0.00798,0.00158,-0.00061,0.00816,0.96521,0.01020,0.00816,3,12123,0,126,0.23380,0.11112,0.47528,100,1,98.118,125,1,3,2594,194960,0,0,0.000,15.938,12.217,0,0.000,39.445,16.443,0,0,2,0,8
PPG,1,1651,67590587,129,74498,79498,79355.547,142.453,-31.117,0,0,0,0,75.00,75.00,0,0,0,100.00,0,0,24,1,1,19,19,0,0,0,67606526,0.04028,-0.00537,0.95752,0.95838,-0.00772,0.00185,-0.00167,0.00811,0.96143,0.00215,0.00811,3,12125,0,126,0.23380,0.11112,0.47528,100,1,98.118,125,1,3,4297,194960,0,0,0.000,15.938,12.217,0,0.000,39.445,16.443,0,0,2,0,8
PPG,1,1652,67630587,135,74506,79528,79357.273,170.727,2.578,0,0,0,0,75.00,75.00,0,0,0,100.00,0,0,24,1,1,20,20,0,0,0,67645471,0.03735,-0.00342,0.95630,0.95703,-0.00692,-0.00028,-0.00061,0.00695,0.95901,0.00457,0.00721,3,12116,0,126,0.23380,0.11112,0.47528,100,1,98.118,125,1,3,2606,194960,0,0,0.000,15.938,12.217,0,0.000,39.445,16.443,0,0,2,0,8
PPG,1,1653,67670587,130,74501,79533,79359.031,173.969,45.578,0,0,0,0,75.00,75.00,0,0,0,100.00,0,0,24,1,1,21,21,0,0,0,67687008,0.03345,-0.00098,0.95605,0.95664,-0.00585,0.00105,-0.00167,0.00618,0.96216,0.00988,0.00733,3,12112,0,126,0.23380,0.11112,0.47528,100,1,98.118,125,1,3,4294,194960,0,0,0.000,15.938,12.217,0,0.000,39.445,16.443,0,0,2,0,8
PPG,1,1654,67710587,131,74503,79534,79360.781,173.219,85.859,0,0,0,0,75.00,75.00,0,0,0,100.00,0,0,24,1,1,22,22,0,0,0,67726343,0.03833,-0.00342,0.96094,0.96171,-0.00692,0.00052,-0.00087,0.00699,0.96327,0.00663,0.00724,3,12314,0,126,0.23380,0.11112,0.47528,100,1,98.118,125,1,3,4318,194960,0,0,0.000,15.938,12.217,0,0.000,39.445,16.443,0,0,2,0,8
PPG,1,1655,67750587,130,74487,79538,79362.555,175.445,118.836,0,0,0,0,75.00,75.00,0,0,0,100.00,0,0,24,1,1,23,23,0,0,0,67765359,0.03662,-0.00635,0.95313,0.95385,-0.00772,0.00185,-0.00061,0.00796,0.96040,0.00655,0.00796,3,12188,0,126,0.23380,0.11112,0.47528,100,1,98.118,125,1,3,2599,194960,0,0,0.000,15.938,12.217,0,0.000,39.445,16.443,0,0,2,0,8
PPG,1,1656,67790587,131,74519,79567,79364.602,202.398,146.008,0,0,0,0,75.00,75.00,0,0,0,100.00,0,0,24,1,1,24,24,0,0,0,67806921,0.03662,-0.00244,0.96362,0.96432,-0.00772,0.00132,-0.00114,0.00791,0.96432,0.00879,0.00791,3,12129,0,126,0.23380,0.11112,0.47528,100,1,98.118,125,1,3,4347,194960,0,0,0.000,15.938,12.217,0,0.000,39.445,16.443,0,0,2,0,8
PPG,1,1657,67830587,129,74531,79630,79367.258,262.742,172.758,0,0,0,0,75.00,75.00,0,0,0,100.00,0,0,24,1,1,25,25,0,0,0,67846062,0.04028,-0.00244,0.95337,0.95422,-0.00798,0.00025,-0.00114,0.00807,0.95508,0.01117,0.00807,3,12113,0,126,0.23380,0.11112,0.47528,100,1,98.118,125,1,3,2601,194960,0,0,0.000,15.938,12.217,0,0.000,39.445,16.443,0,0,2,0,8
PPG,1,1658,67870587,133,74534,79686,79370.445,315.555,194.461,0,1,0,0,75.00,75.00,0,0,0,100.00,0,0,24,1,1,26,26,0,0,0,67887806,0.03735,-0.00317,0.96558,0.96630,-0.00745,0.00052,-0.00167,0.00765,0.96630,0.01018,0.00793,3,12128,0,126,0.23380,0.11112,0.47528,100,1,98.118,125,1,3,4310,194960,0,0,0.000,15.938,12.217,0,0.000,39.445,16.443,0,0,2,0,8
PPG,1,1659,67910587,154,74524,79690,79373.641,316.359,197.312,0,0,0,0,75.00,75.00,0,0,0,100.00,0,0,24,1,1,27,27,0,0,0,67927049,0.03979,-0.00537,0.95313,0.95397,-0.00745,0.00185,-0.00167,0.00786,0.95883,0.01161,0.00786,3,12312,0,126,0.23380,0.11112,0.47528,100,1,98.118,125,1,3,4321,194960,0,0,0.000,15.938,12.217,0,0.000,39.445,16.443,0,0,2,0,8
PPG,1,1660,67950587,146,74508,79602,79375.922,226.078,182.508,0,0,0,0,75.00,75.00,0,0,0,100.00,0,0,24,1,1,28,28,0,0,0,67966462,0.03809,-0.00293,0.95703,0.95779,-0.00692,0.00185,0.00019,0.00716,0.96090,0.00381,0.00817,3,12269,0,126,0.23380,0.11112,0.47528,100,1,98.118,125,1,3,4354,194960,0,0,0.000,15.938,12.217,0,0.000,39.445,16.443,0,0,2,0,8
PPG,1,1661,67990587,147,74408,79313,79375.289,-62.289,140.844,0,0,0,0,75.00,75.00,0,0,0,100.00,0,0,24,1,1,29,29,0,0,0,68005822,0.03760,-0.00293,0.95410,0.95485,-0.00745,0.00132,-0.00141,0.00769,0.96142,0.01254,0.00769,3,12258,0,126,0.23380,0.11112,0.47528,100,1,98.118,125,1,3,2633,194960,0,0,0.000,15.938,12.217,0,0.000,39.445,16.443,0,0,2,0,8
PPG,1,1662,68030587,136,74333,79100,79372.539,-272.539,80.820,0,0,0,0,75.00,75.00,0,0,0,100.00,0,0,24,1,1,30,30,0,0,0,68047845,0.04004,-0.00244,0.95435,0.95519,-0.00665,0.00079,0.00019,0.00670,0.96267,0.00782,0.00801,3,12258,0,126,0.23380,0.11112,0.47528,100,1,98.118,125,1,3,4347,194960,0,0,0.000,15.938,12.217,0,0.000,39.445,16.443,0,0,2,0,8
PPG,1,1663,68070587,130,74319,79066,79369.477,-303.477,15.953,0,0,0,0,75.00,75.00,0,0,0,100.00,0,0,24,1,1,31,31,0,0,0,68087191,0.03882,-0.00586,0.95435,0.95515,-0.00745,0.00132,-0.00114,0.00765,0.96106,0.00588,0.00767,3,12251,0,126,0.23380,0.11112,0.47528,100,1,98.118,125,1,3,4316,194960,0,0,0.000,15.938,12.217,0,0.000,39.445,16.443,0,0,2,0,8
PPG,1,1664,68110587,131,74315,79082,79366.602,-284.602,-52.336,0,0,0,0,75.00,75.00,0,0,0,100.00,0,0,24,1,1,0,0,0,0,0,68126489,0.03296,-0.00366,0.95703,0.95761,-0.00692,0.00079,-0.00194,0.00723,0.95761,0.00636,0.00729,3,12242,0,126,0.23380,0.11112,0.47528,100,1,98.118,125,1,3,4329,194960,0,0,0.000,15.938,12.217,0,0.000,39.445,16.443,0,0,2,0,8
PPG,1,1665,68150587,140,74332,79132,79364.258,-232.258,-124.281,0,0,0,0,75.00,75.00,0,0,0,100.00,0,0,24,1,1,1,1,0,0,0,68165796,0.03613,-0.00244,0.95654,0.95723,-0.00772,0.00292,-0.00114,0.00833,0.96182,0.00538,0.00843,3,12247,0,126,0.23380,0.11112,0.47528,100,1,98.118,125,1,3,2619,194960,0,0,0.000,15.938,12.217,0,0.000,39.445,16.443,0,0,2,0,8
PPG,1,1666,68190587,550,74367,79208,79362.695,-154.695,-192.641,0,0,0,0,75.00,75.00,0,0,0,100.00,0,0,24,1,1,2,2,0,0,0,68207775,0.04028,-0.00244,0.95215,0.95300,-0.00718,0.00105,-0.00194,0.00751,0.96286,0.00581,0.00840,3,12268,0,126,0.24774,0.10636,0.42933,100,1,99.267,107,1,3,4355,194960,0,0,120.633,15.938,12.217,1,0.000,39.445,16.443,0,0,2,0,8
PPG,1,1667,68230587,201,74369,79228,79361.352,-133.352,-244.859,1,0,1,860,71.43,71.43,0,0,0,100.00,0,0,24,1,1,3,3,0,0,0,68247644,0.03662,-0.00293,0.95850,0.95920,-0.00718,0.00238,-0.00087,0.00762,0.96248,0.00948,0.00776,3,12254,0,126,0.24774,0.10636,0.42933,100,1,99.267,107,1,3,4321,194960,0,0,0.000,15.938,12.217,0,378.133,39.445,16.443,1,1,2,0,8
PPG,1,1668,68270587,139,74349,79194,79359.680,-165.680,-255.359,0,0,0,0,71.43,71.43,0,0,0,100.00,0,0,24,1,1,4,4,0,0,0,68286972,0.03589,-0.00293,0.95825,0.95893,-0.00745,0.00238,-0.00141,0.00795,0.96299,0.00436,0.00853,3,12211,0,126,0.24774,0.10636,0.42933,100,1,99.267,107,1,3,4339,194960,0,0,0.000,15.912,12.167,0,0.000,39.521,16.512,0,0,2,0,8
PPG,1,1669,68310587,134,74364,79199,79358.070,-159.070,-231.070,0,0,0,0,71.43,71.43,0,0,0,100.00,0,0,24,1,1,5,5,0,0,0,68338326,0.03418,-0.00098,0.95410,0.95471,-0.00772,0.00158,-0.00114,0.00796,0.95948,0.00568,0.00796,3,24275,0,127,0.24774,0.10636,0.42933,100,1,99.267,107,1,3,14581,194960,0,0,0.000,15.912,12.167,0,0.000,39.521,16.512,0,0,2,0,8
PPG,1,1670,68350587,131,74384,79266,79357.148,-91.148,-192.703,0,0,0,0,71.43,71.43,0,0,0,100.00,0,0,24,1,1,6,6,0,0,0,68362848,0.03760,-0.00415,0.95703,0.95778,-0.00772,0.00025,-0.00087,0.00777,0.95778,0.00387,0.00784,2,12286,0,127,0.24774,0.10636,0.42933,100,1,99.267,107,1,3,2622,194960,0,0,0.000,15.912,12.167,0,0.000,39.521,16.512,0,0,2,0,8
PPG,1,1671,68390587,128,74393,79325,79356.828,-31.828,-149.336,0,0,0,0,71.43,71.43,0,0,0,100.00,0,0,24,1,1,7,7,0,0,0,68407337,0.04077,-0.00415,0.95581,0.95669,-0.00718,0.00158,-0.00114,0.00744,0.96147,0.00607,0.00803,3,12230,0,128,0.24774,0.10636,0.42933,100,1,99.267,107,1,3,4335,194960,0,0,0.000,15.912,12.167,0,0.000,39.521,16.512,0,0,2,0,8
PPG,1,1672,68430587,130,74425,79378,79357.039,20.961,-106.688,0,0,0,0,71.43,71.43,0,0,0,100.00,0,0,24,1,1,8,8,0,0,0,68446644,0.03711,-0.00342,0.95728,0.95800,-0.00692,0.00105,-0.00061,0.00702,0.96023,0.00300,0.00744,3,12239,0,128,0.24774,0.10636,0.42933,100,1,99.267,107,1,3,4328,194960,0,0,0.000,15.912,12.167,0,0.000,39.521,16.512,0,0,2,0,8
PPG,1,1673,68470587,130,74420,79413,79357.602,55.398,-71.406,0,0,0,0,71.43,71.43,0,0,0,100.00,0,0,24,1,1,9,9,0,0,0,68485970,0.03687,0.00122,0.95361,0.95433,-0.00772,0.00132,-0.00007,0.00783,0.95850,0.00563,0.00843,3,12220,0,128,0.24774,0.10636,0.42933,100,1,99.267,107,1,3,2618,194960,0,0,0.000,15.912,12.167,0,0.000,39.521,16.512,0,0,2,0,8
PPG,1,1674,68510587,129,74436,79446,79358.484,87.516,-35.859,0,0,0,0,71.43,71.43,0,0,0,100.00,0,0,24,1,1,10,10,0,0,0,68527891,0.03687,-0.00366,0.95557,0.95628,-0.00692,0.00105,-0.00221,0.00734,0.95753,0.00250,0.00841,3,12267,0,128,0.24774,0.10636,0.42933,100,1,99.267,107,1,3,4312,194960,0,0,0.000,15.912,12.167,0,0.000,39.521,16.512,0,0,2,0,8
PPG,1,1675,68550587,128,74443,79479,79359.688,119.312,7.797,0,0,0,0,71.43,71.43,0,0,0,100.00,0,0,24,1,1,11,11,0,0,0,68566891,0.04126,-0.00269,0.96069,0.96158,-0.00692,0.00105,-0.00087,0.00705,0.96158,0.00285,0.00862,3,12131,0,128,0.24774,0.10636,0.42933,100,1,99.267,107,1,3,4297,194960,0,0,0.000,15.912,12.167,0,0.000,39.521,16.512,0,0,2,0,8
PPG,1,1676,68590587,178,74467,79524,79361.328,162.672,56.383,0,0,0,0,71.43,71.43,0,0,0,100.00,0,0,24,1,1,12,12,0,0,0,68606012,0.03540,-0.00781,0.96094,0.96162,-0.00772,0.00132,-0.00167,0.00800,0.96162,0.00606,0.00800,3,12111,0,128,0.24774,0.10636,0.42933,100,1,99.267,107,1,3,2597,194960,0,0,0.000,15.912,12.167,0,0.000,39.521,16.512,0,0,2,0,8
PPG,1,1677,68630587,128,74472,79546,79363.172,182.828,100.578,0,0,0,0,71.43,71.43,0,0,0,100.00,0,0,24,1,1,13,13,0,0,0,68647722,0.03687,-0.00146,0.95801,0.95872,-0.00665,0.00185,-0.00034,0.00691,0.96385,0.00434,0.00822,3,12128,0,128,0.24774,0.10636,0.42933,100,1,99.267,107,1,3,4296,194960,0,0,0.000,15.912,12.167,0,0.000,39.521,16.512,0,0,2,0,8
PPG,1,1678,68670587,128,74471,79567,79365.211,201.789,141.102,0,0,0,0,71.43,71.43,0,0,0,100.00,0,0,24,1,1,14,14,0,0,0,68686784,0.03760,0.00073,0.96216,0.96289,-0.00772,0.00185,-0.00141,0.00806,0.96289,0.01328,0.00819,3,12123,0,128,0.24774,0.10636,0.42933,100,1,99.267,107,1,3,4300,194960,0,0,0.000,15.912,12.167,0,0.000,39.521,16.512,0,0,2,0,8
PPG,1,1679,68710587,127,74489,79615,79367.711,247.289,178.711,0,0,0,0,71.43,71.43,0,0,0,100.00,0,0,24,1,1,15,15,0,0,0,68725788,0.03882,0.00000,0.96143,0.96221,-0.00772,0.00132,-0.00141,0.00795,0.96455,0.00657,0.00795,3,12148,0,128,0.24774,0.10636,0.42933,100,1,99.267,107,1,3,2594,194960,0,0,0.000,15.912,12.167,0,0.000,39.521,16.512,0,0,2,0,8
PPG,1,1680,68750587,128,74497,79640,79370.438,269.562,209.242,0,0,0,0,71.43,71.43,0,0,0,100.00,0,0,24,1,1,16,16,0,0,0,68767325,0.03955,-0.00415,0.95898,0.95981,-0.00745,0.00212,-0.00061,0.00777,0.95981,0.00406,0.00843,3,12108,0,128,0.24774,0.10636,0.42933,100,1,99.267,107,1,3,4306,194960,0,0,0.000,15.912,12.167,0,0.000,39.521,16.512,0,0,2,0,8
PPG,1,1681,68790587,129,74505,79680,79373.531,306.469,224.312,0,0,0,0,71.43,71.43,0,0,0,100.00,0,0,24,1,1,17,17,0,0,0,68806378,0.03857,-0.00342,0.95679,0.95757,-0.00718,0.00158,-0.00061,0.00738,0.95980,0.00223,0.00788,3,12115,0,128,0.24774,0.10636,0.42933,100,1,99.267,107,1,3,2598,194960,0,0,0.000,15.912,12.167,0,0.000,39.521,16.512,0,0,2,0,8
PPG,1,1682,68830587,130,74510,79703,79376.828,326.172,226.164,0,0,0,0,71.43,71.43,0,0,0,100.00,0,0,24,1,1,18,18,0,0,0,68848002,0.03931,-0.00439,0.95386,0.95468,-0.00825,0.00265,-0.00167,0.00882,0.96044,0.00477,0.00882,3,12115,0,128,0.24774,0.10636,0.42933,100,1,99.267,107,1,3,4294,194960,0,0,0.000,15.912,12.167,0,0.000,39.521,16.512,0,0,2,0,8
PPG,1,1683,68870587,175,74463,79540,79378.461,161.539,204.750,0,1,0,0,71.43,71.43,0,0,0,100.00,0,0,24,1,1,19,19,0,0,0,68886956,0.03491,-0.00366,0.95825,0.95889,-0.00772,0.00158,-0.00061,0.00790,0.95889,0.00532,0.00897,3,12106,0,128,0.24774,0.10636,0.42933,100,1,99.267,107,1,3,4300,194960,0,0,0.000,15.912,12.167,0,0.000,39.521,16.512,0,0,2,0,8
PPG,1,1684,68910587,130,74357,79226,79376.938,-150.938,151.836,0,0,0,0,71.43,71.43,0,0,0,100.00,0,0,24,1,1,20,20,0,0,0,68925999,0.03638,-0.00195,0.95825,0.95894,-0.00772,0.00132,-0.00087,0.00788,0.96196,0.00301,0.00792,3,12138,0,128,0.24774,0.10636,0.42933,100,1,99.267,107,1,3,2620,194960,0,0,0.000,15.912,12.167,0,0.000,39.521,16.512,0,0,2,0,8
PPG,1,1685,68950587,128,74299,79075,79373.922,-298.922,84.398,0,0,0,0,71.43,71.43,0,0,0,100.00,0,0,24,1,1,21,21,0,0,0,68967695,0.03711,0.00049,0.95947,0.96019,-0.00692,0.00132,-0.00141,0.00718,0.96019,0.00245,0.00837,3,12126,0,128,0.24774,0.10636,0.42933,100,1,99.267,107,1,3,4301,194960,0,0,0.000,15.912,12.167,0,0.000,39.521,16.512,0,0,2,0,8
PPG,1,1686,68990587,129,74303,79102,79371.203,-269.203,16.414,0,0,0,0,71.43,71.43,0,0,0,100.00,0,0,24,1,1,22,22,0,0,0,69006666,0.03613,-0.00439,0.95166,0.95236,-0.00772,0.00185,-0.00087,0.00798,0.95746,0.00510,0.00826,3,12123,0,128,0.24774,0.10636,0.42933,100,1,99.267,107,1,3,4301,194960,0,0,0.000,15.912,12.167,0,0.000,39.521,16.512,0,0,2,0,8
PPG,1,1687,69030587,127,74331,79166,79369.148,-203.148,-48.203,0,0,0,0,71.43,71.43,0,0,0,100.00,0,0,24,1,1,23,23,0,0,0,69045710,0.03613,-0.00464,0.95947,0.96016,-0.00638,0.00132,-0.00114,0.00662,0.96016,0.00526,0.00737,3,12129,0,128,0.24774,0.10636,0.42933,100,1,99.267,107,1,3,2607,194960,0,0,0.000,15.912,12.167,0,0.000,39.521,16.512,0,0,2,0,8
PPG,1,1688,69070587,128,74346,79242,79367.875,-125.875,-113.172,0,0,0,0,71.43,71.43,0,0,0,100.00,0,0,24,1,1,24,24,0,0,0,69087295,0.03613,-0.00391,0.95801,0.95870,-0.00745,0.00105,-0.00114,0.00761,0.96205,0.00328,0.00819,3,12122,0,128,0.24774,0.10636,0.42933,100,1,99.267,107,1,3,4305,194960,0,0,0.000,15.912,12.167,0,0.000,39.521,16.512,0,0,2,0,8
PPG,1,1689,69110587,127,74364,79349,79367.688,-18.688,-171.242,0,0,0,0,71.43,71.43,0,0,0,100.00,0,0,24,1,1,25,25,0,0,0,69126268,0.03516,-0.00171,0.95361,0.95426,-0.00718,0.00052,-0.00061,0.00723,0.95796,0.00280,0.00728,3,12117,0,128,0.24774,0.10636,0.42933,100,1,99.267,107,1,3,2596,194960,0,0,0.000,15.912,12.167,0,0.000,39.521,16.512,0,0,2,0,8
PPG,1,1690,69150587,153,74373,79335,79367.359,-32.359,-203.977,1,0,1,940,71.43,71.43,0,0,0,100.00,0,0,24,1,1,26,26,0,0,0,69167927,0.03320,-0.00415,0.95801,0.95859,-0.00718,0.00238,-0.00034,0.00758,0.95859,0.00458,0.00831,3,12120,0,128,0.24774,0.10636,0.42933,100,1,99.267,107,1,3,4298,194960,0,0,174.469,15.912,12.167,1,481.523,39.521,16.512,1,1,2,0,8
PPG,1,1691,69190587,546,74348,79277,79366.453,-89.453,-194.289,0,0,0,0,71.43,71.43,0,0,0,100.00,0,1,24,1,1,27,27,0,0,0,69206970,0.03882,-0.00488,0.96411,0.96490,-0.00692,0.00212,-0.00087,0.00729,0.96490,0.01300,0.00845,3,12118,0,128,0.25816,0.09969,0.38616,100,1,100.346,88,1,3,4300,194960,0,0,0.000,16.226,12.782,0,0.000,40.233,17.152,0,0,2,0,8
PPG,1,1692,69230587,185,74361,79293,79365.719,-72.719,-158.898,0,0,0,0,71.43,71.43,0,0,0,100.00,0,1,24,1,1,28,28,0,0,0,69246484,0.03809,-0.00146,0.95776,0.95852,-0.00878,0.00212,-0.00087,0.00908,0.95876,0.00615,0.00908,3,12172,0,128,0.25816,0.09969,0.38616,100,1,100.346,88,1,3,2601,194960,0,0,0.000,16.226,12.782,0,0.000,40.233,17.152,0,0,2,0,8
PPG,1,1693,69270587,133,74380,79381,79365.875,15.125,-117.438,0,0,0,0,71.43,71.43,0,0,0,100.00,0,1,24,1,1,29,29,0,0,0,69288107,0.03735,-0.00049,0.95581,0.95654,-0.00798,0.00105,-0.00087,0.00810,0.96357,0.00657,0.00810,3,12124,0,128,0.25816,0.09969,0.38616,100,1,100.346,88,1,3,4304,194960,0,0,0.000,16.226,12.782,0,0.000,40.233,17.152,0,0,2,0,8
PPG,1,1694,69310587,178,74409,79451,79366.727,84.273,-76.977,0,0,0,0,71.43,71.43,0,0,0,100.00,0,1,24,1,1,30,30,0,0,0,69339155,0.03809,-0.00366,0.95996,0.96072,-0.00798,-0.00028,-0.00167,0.00816,0.96183,0.00271,0.00816,3,24128,0,129,0.25816,0.09969,0.38616,100,1,100.346,88,1,3,14572,194960,0,0,0.000,16.226,12.782,0,0.000,40.233,17.152,0,0,2,0,8
PPG,1,1695,69350587,131,74410,79485,79367.906,117.094,-42.562,0,0,0,0,71.43,71.43,0,0,0,100.00,0,1,24,1,1,31,31,0,0,0,69363589,0.04053,-0.00391,0.95850,0.95936,-0.00692,0.00052,-0.00141,0.00708,0.95936,0.00667,0.00782,2,12167,0,129,0.25816,0.09969,0.38616,100,1,100.346,88,1,3,2598,194960,0,0,0.000,16.226,12.782,0,0.000,40.233,17.152,0,0,2,0,8
PPG,1,1696,69390587,132,74421,79507,79369.297,137.703,-19.141,0,0,0,0,71.43,71.43,0,0,0,100.00,0,1,24,1,1,0,0,0,0,0,69407807,0.03247,-0.00122,0.96216,0.96271,-0.00718,0.00158,0.00046,0.00737,0.96271,0.00870,0.00737,3,12114,0,129,0.25816,0.09969,0.38616,100,1,100.346,88,1,3,4308,194960,0,0,0.000,16.226,12.782,0,0.000,40.233,17.152,0,0,2,0,8
PPG,1,1697,69430587,130,74417,79513,79370.734,142.266,7.938,0,0,0,0,71.43,71.43,0,0,0,100.00,0,1,24,1,1,1,1,0,0,0,69446824,0.03784,-0.00342,0.96289,0.96364,-0.00718,0.00238,-0.00167,0.00775,0.96364,0.00170,0.00775,3,12165,0,129,0.25816,0.09969,0.38616,100,1,100.346,88,1,3,4302,194960,0,0,0.000,16.226,12.782,0,0.000,40.233,17.152,0,0,2,0,8
PPG,1,1698,69470587,132,74426,79551,79372.539,178.461,47.883,0,0,0,0,71.43,71.43,0,0,0,100.00,0,1,24,1,1,2,2,0,0,0,69485847,0.03760,-0.00098,0.96191,0.96265,-0.00772,0.00158,-0.00194,0.00811,0.96265,0.01192,0.00811,3,12120,0,129,0.25816,0.09969,0.38616,100,1,100.346,88,1,3,2598,194960,0,0,0.000,16.226,12.782,0,0.000,40.233,17.152,0,0,2,0,8
PPG,1,1699,69510587,130,74438,79593,79374.742,218.258,91.836,0,0,0,0,71.43,71.43,0,0,0,100.00,0,1,24,1,1,3,3,0,0,0,69527428,0.03833,0.00024,0.95947,0.96024,-0.00638,0.00185,-0.00221,0.00700,0.96024,0.00924,0.00787,3,12124,0,129,0.25816,0.09969,0.38616,100,1,100.346,88,1,3,4296,194960,0,0,0.000,16.226,12.782,0,0.000,40.233,17.152,0,0,2,0,8
PPG,1,1700,69550587,134,74446,79615,79377.148,237.852,126.508,0,0,0,0,71.43,71.43,0,0,0,100.00,0,1,24,1,1,4,4,0,0,0,69566471,0.03760,-0.00464,0.95825,0.95900,-0.00692,0.00052,-0.00087,0.00699,0.96455,0.00555,0.00780,3,12124,0,129,0.25816,0.09969,0.38616,100,1,100.346,88,1,3,2598,194960,0,0,0.000,16.226,12.782,0,0.000,40.233,17.152,0,0,2,0,8
PPG,1,1701,69590587,130,74433,79614,79379.516,234.484,153.102,0,0,0,0,71.43,71.43,0,0,0,100.00,0,1,24,1,1,5,5,0,0,0,69608007,0.03809,-0.00244,0.95923,0.95999,-0.00825,0.00158,-0.00087,0.00845,0.96353,0.00714,0.00845,3,12106,0,129,0.25816,0.09969,0.38616,100,1,100.346,88,1,3,4294,194960,0,0,0.000,16.226,12.782,0,0.000,40.233,17.152,0,0,2,0,8
PPG,1,1702,69630587,210,74448,79665,79382.367,282.633,180.711,0,0,0,0,71.43,71.43,0,0,0,100.00,0,1,24,1,1,6,6,0,0,0,69647018,0.03613,-0.00171,0.95581,0.95649,-0.00718,-0.00001,-0.00247,0.00760,0.96092,0.00559,0.00840,3,12167,0,129,0.25816,0.09969,0.38616,100,1,100.346,88,1,3,4297,194960,0,0,0.000,16.226,12.782,0,0.000,40.233,17.152,0,0,2,0,8
PPG,1,1703,69670587,129,74463,79683,79385.375,297.625,198.711,0,0,0,0,71.43,71.43,0,0,0,100.00,0,1,24,1,1,7,7,0,0,0,69686074,0.03906,0.00000,0.95776,0.95856,-0.00798,0.00158,-0.00114,0.00822,0.96182,0.00680,0.00822,3,12122,0,129,0.25816,0.09969,0.38616,100,1,100.346,88,1,3,2600,194960,0,0,0.000,16.226,12.782,0,0.000,40.233,17.152,0,0,2,0,8
PPG,1,1704,69710587,134,74476,79706,79388.578,317.422,202.281,0,1,0,0,71.43,71.43,0,0,0,100.00,0,1,24,1,1,8,8,0,0,0,69727662,0.04150,0.00146,0.95459,0.95549,-0.00665,0.00105,-0.00114,0.00683,0.96113,0.00563,0.00798,3,12132,0,129,0.25816,0.09969,0.38616,100,1,100.346,88,1,3,4305,194960,0,0,0.000,16.226,12.782,0,0.000,40.233,17.152,0,0,2,0,8
PPG,1,1705,69750587,162,74433,79586,79390.555,195.445,181.727,0,0,0,0,71.43,71.43,0,0,0,100.00,0,1,24,1,1,9,9,0,0,0,69766931,0.03931,-0.00024,0.96338,0.96418,-0.00665,0.00238,-0.00087,0.00712,0.96418,0.00517,0.00712,3,12313,0,129,0.25816,0.09969,0.38616,100,1,100.346,88,1,3,4335,194960,0,0,0.000,16.226,12.782,0,0.000,40.233,17.152,0,0,2,0,8
PPG,1,1706,69790587,131,74334,79294,79389.586,-95.586,129.414,0,0,0,0,71.43,71.43,0,0,0,100.00,0,1,24,1,1,10,10,0,0,0,69806081,0.04004,0.00024,0.95410,0.95494,-0.00798,0.00052,-0.00087,0.00805,0.96337,0.00843,0.00805,3,12177,0,129,0.25816,0.09969,0.38616,100,1,100.346,88,1,3,2598,194960,0,0,0.000,16.226,12.782,0,0.000,40.233,17.152,0,0,2,0,8
PPG,1,1707,69830587,130,74267,79122,79386.906,-264.906,61.188,0,0,0,0,71.43,71.43,0,0,0,100.00,0,1,24,1,1,11,11,0,0,0,69847641,0.03931,-0.00073,0.96069,0.96150,-0.00612,0.00105,-0.00114,0.00631,0.96150,0.00567,0.00841,3,12130,0,129,0.25816,0.09969,0.38616,100,1,100.346,88,1,3,4296,194960,0,0,0.000,16.226,12.782,0,0.000,40.233,17.152,0,0,2,0,8
PPG,1,1708,69870587,132,74269,79164,79384.680,-220.680,0.797,0,0,0,0,71.43,71.43,0,0,0,100.00,0,1,24,1,1,12,12,0,0,0,69886783,0.03516,0.00073,0.95410,0.95475,-0.00638,0.00185,-0.00114,0.00674,0.95984,0.00509,0.00713,3,12120,0,129,0.25816,0.09969,0.38616,100,1,100.346,88,1,3,2594,194960,0,0,0.000,16.226,12.782,0,0.000,40.233,17.152,0,0,2,0,8
PPG,1,1709,69910587,129,74304,79229,79383.125,-154.125,-55.492,0,0,0,0,71.43,71.43,0,0,0,100.00,0,1,24,1,1,13,13,0,0,0,69928504,0.03613,-0.00171,0.96094,0.96162,-0.00745,0.00105,-0.00061,0.00755,0.96162,0.00702,0.00797,3,12122,0,129,0.25816,0.09969,0.38616,100,1,100.346,88,1,3,4298,194960,0,0,0.000,16.226,12.782,0,0.000,40.233,17.152,0,0,2,0,8
PPG,1,1710,69950587,138,74344,79321,79382.500,-61.500,-106.500,0,0,0,0,71.43,71.43,0,0,0,100.00,0,1,24,1,1,14,14,0,0,0,69967914,0.03760,-0.00146,0.95483,0.95557,-0.00772,0.00185,-0.00167,0.00811,0.96353,0.00796,0.00811,3,12254,0,129,0.25816,0.09969,0.38616,100,1,100.346,88,1,3,4346,194960,0,0,0.000,16.226,12.782,0,0.000,40.233,17.152,0,0,2,0,8
PPG,1,1711,69990587,129,74348,79383,79382.508,0.492,-157.938,0,0,0,0,71.43,71.43,0,0,0,100.00,0,1,24,1,1,15,15,0,0,0,70007285,0.03540,-0.00024,0.95874,0.95939,-0.00665,0.00025,-0.00114,0.00675,0.95939,0.00314,0.00805,3,12315,0,129,0.25816,0.09969,0.38616,100,1,100.346,88,1,3,4352,194960,0,0,0.000,16.226,12.782,0,0.000,40.233,17.152,0,0,2,0,8
PPG,1,1712,70030587,153,74347,79382,79382.500,-0.500,-191.539,1,0,1,880,69.77,69.77,0,0,0,100.00,0,1,24,1,1,16,16,0,0,0,70046654,0.03662,-0.00122,0.95923,0.95993,-0.00692,0.00185,-0.00087,0.00721,0.95993,0.00551,0.00735,3,12233,0,129,0.25816,0.09969,0.38616,100,1,100.346,88,1,3,2658,194960,0,0,131.742,16.226,12.782,1,406.258,40.233,17.152,1,1,2,0,8
PPG,1,1713,70070587,128,74341,79325,79381.922,-56.922,-184.312,0,0,0,0,69.77,69.77,0,0,0,100.00,0,1,24,1,1,17,17,0,0,0,70088693,0.03979,-0.00269,0.95972,0.96055,-0.00718,0.00212,-0.00167,0.00767,0.96141,0.00636,0.00767,3,12255,0,129,0.25816,0.09969,0.38616,100,1,100.346,88,1,3,4341,194960,0,0,0.000,16.234,12.797,0,0.000,40.386,17.289,0,0,2,0,8
PPG,1,1714,70110587,141,74352,79346,79381.562,-35.562,-147.062,0,0,0,0,69.77,69.77,0,0,0,100.00,0,1,24,1,1,18,18,0,0,0,70128068,0.03564,-0.00708,0.95728,0.95796,-0.00745,0.00212,-0.00087,0.00779,0.95868,0.00416,0.00779,3,12227,0,129,0.25816,0.09969,0.38616,100,1,100.346,88,1,3,4341,194960,0,0,0.000,16.234,12.797,0,0.000,40.386,17.289,0,0,2,0,8
PPG,1,1715,70150587,127,74364,79400,79381.750,18.250,-109.094,0,0,0,0,69.77,69.77,0,0,0,100.00,0,1,24,1,1,19,19,0,0,0,70167479,0.03955,-0.00415,0.96191,0.96274,-0.00612,0.00079,-0.00034,0.00618,0.96300,0.00332,0.00831,3,12261,0,129,0.25816,0.09969,0.38616,100,1,100.346,88,1,3,4332,194960,0,0,0.000,16.234,12.797,0,0.000,40.386,17.289,0,0,2,0,8
PPG,1,1716,70190587,573,74375,79452,79382.453,69.547,-74.492,0,0,0,0,69.77,69.77,0,0,0,100.00,0,1,24,2,2,21,21,0,0,0,70267079,0.03760,-0.00439,0.95508,0.95583,-0.00825,0.00105,-0.00274,0.00876,0.96868,0.01324,0.00876,4,60312,0,134,0.24953,0.09364,0.37528,100,1,100.618,83,1,3,60200,194960,0,0,0.000,16.234,12.797,0,0.000,40.386,17.289,0,0,2,0,8
PPG,1,1717,70230587,89,74398,79506,79383.688,122.312,-47.711,0,0,0,0,69.77,69.77,0,0,0,100.00,0,1,24,2,2,21,21,0,0,0,70267079,0.03760,-0.00439,0.95508,0.95583,-0.00825,0.00105,-0.00274,0.00876,0.00000,0.00000,0.00000,0,60312,0,134,0.24953,0.09364,0.37528,100,1,100.618,83,1,3,60200,194960,0,0,0.000,16.234,12.797,0,0.000,40.386,17.289,0,0,2,0,8
PPG,1,1718,70270587,137,74404,79536,79385.211,150.789,-25.102,0,0,0,0,69.77,69.77,0,0,0,100.00,0,1,24,1,1,22,22,0,0,0,70293913,0.03589,-0.00195,0.96313,0.96381,-0.00772,0.00025,-0.00061,0.00774,0.96381,0.00463,0.00784,2,12628,0,134,0.24953,0.09364,0.37528,100,1,100.618,83,1,3,2639,194960,0,0,0.000,16.234,12.797,0,0.000,40.386,17.289,0,0,2,0,8
PPG,1,1719,70310587,135,74417,79562,79386.977,175.023,2.164,0,0,0,0,69.77,69.77,0,0,0,100.00,0,1,24,1,1,23,23,0,0,0,70339998,0.03833,-0.00073,0.95776,0.95853,-0.00665,0.00105,-0.00087,0.00679,0.96157,0.00815,0.00679,3,21612,0,135,0.24953,0.09364,0.37528,100,1,100.618,83,1,3,14598,194960,0,0,0.000,16.234,12.797,0,0.000,40.386,17.289,0,0,2,0,8
PPG,1,1720,70350587,130,74422,79591,79389.016,201.984,41.359,0,0,0,0,69.77,69.77,0,0,0,100.00,0,1,24,1,1,24,24,0,0,0,70364533,0.03516,-0.00269,0.96191,0.96256,-0.00798,0.00185,-0.00194,0.00842,0.96256,0.00435,0.00842,2,12319,0,135,0.24953,0.09364,0.37528,100,1,100.618,83,1,3,2634,194960,0,0,0.000,16.234,12.797,0,0.000,40.386,17.289,0,0,2,0,8
PPG,1,1721,70390587,130,74427,79616,79391.289,224.711,79.836,0,0,0,0,69.77,69.77,0,0,0,100.00,0,1,24,1,1,25,25,0,0,0,70406485,0.03882,-0.00342,0.96533,0.96612,-0.00745,0.00105,-0.00114,0.00761,0.96612,0.00962,0.00800,3,12217,0,135,0.24953,0.09364,0.37528,100,1,100.618,83,1,3,2635,194960,0,0,0.000,16.234,12.797,0,0.000,40.386,17.289,0,0,2,0,8
PPG,1,1722,70430587,129,74442,79654,79393.914,260.086,116.672,0,0,0,0,69.77,69.77,0,0,0,100.00,0,1,24,1,1,26,26,0,0,0,70448424,0.03784,-0.00244,0.95874,0.95949,-0.00772,0.00132,-0.00167,0.00800,0.96151,0.00882,0.00800,3,12237,0,135,0.24953,0.09364,0.37528,100,1,100.618,83,1,3,4340,194960,0,0,0.000,16.234,12.797,0,0.000,40.386,17.289,0,0,2,0,8
PPG,1,1723,70470587,130,74457,79690,79396.875,293.125,150.320,0,0,0,0,69.77,69.77,0,0,0,100.00,0,1,24,1,1,27,27,0,0,0,70487753,0.03589,-0.00293,0.95532,0.95600,-0.00718,0.00158,-0.00087,0.00741,0.95749,0.00388,0.00806,3,12253,0,135,0.24953,0.09364,0.37528,100,1,100.618,83,1,3,4330,194960,0,0,0.000,16.234,12.797,0,0.000,40.386,17.289,0,0,2,0,8
PPG,1,1724,70510587,129,74467,79712,79400.023,311.977,179.453,0,0,0,0,69.77,69.77,0,0,0,100.00,0,1,24,1,1,28,28,0,0,0,70527016,0.04053,-0.00415,0.95605,0.95692,-0.00665,0.00238,-0.00141,0.00720,0.95692,0.00265,0.00770,3,12229,0,135,0.24953,0.09364,0.37528,100,1,100.618,83,1,3,2627,194960,0,0,0.000,16.234,12.797,0,0.000,40.386,17.289,0,0,2,0,8
PPG,1,1725,70550587,131,74458,79723,79403.250,319.750,199.312,0,0,0,0,69.77,69.77,0,0,0,100.00,0,1,24,1,1,29,29,0,0,0,70568902,0.03735,-0.00366,0.95947,0.96021,-0.00692,0.00158,-0.00034,0.00710,0.96021,0.00594,0.00762,3,12161,0,135,0.24953,0.09364,0.37528,100,1,100.618,83,1,3,4299,194960,0,0,0.000,16.234,12.797,0,0.000,40.386,17.289,0,0,2,0,8
PPG,1,1726,70590587,165,74421,79593,79405.148,187.852,188.789,0,1,0,0,69.77,69.77,0,0,0,100.00,0,1,24,1,1,30,30,0,0,0,70608153,0.03760,-0.00220,0.95557,0.95631,-0.00718,0.00025,-0.00061,0.00721,0.96259,0.00528,0.00765,3,12111,0,135,0.24953,0.09364,0.37528,100,1,100.618,83,1,3,4300,194960,0,0,0.000,16.234,12.797,0,0.000,40.386,17.289,0,0,2,0,8
PPG,1,1727,70630587,130,74319,79293,79404.023,-111.023,137.672,0,0,0,0,69.77,69.77,0,0,0,100.00,0,1,24,1,1,31,31,0,0,0,70647229,0.03833,-0.00366,0.95410,0.95488,-0.00718,0.00158,-0.00167,0.00754,0.95843,0.00481,0.00802,3,12123,0,135,0.24953,0.09364,0.37528,100,1,100.618,83,1,3,2605,194960,0,0,0.000,16.234,12.797,0,0.000,40.386,17.289,0,0,2,0,8
PPG,1,1728,70670587,128,74256,79131,79401.297,-270.297,70.039,0,0,0,0,69.77,69.77,0,0,0,100.00,0,1,24,1,1,0,0,0,0,0,70688843,0.03442,-0.00024,0.96045,0.96107,-0.00745,0.00025,-0.00034,0.00746,0.96119,0.00631,0.00830,3,12141,0,135,0.24953,0.09364,0.37528,100,1,100.618,83,1,3,4315,194960,0,0,0.000,16.234,12.797,0,0.000,40.386,17.289,0,0,2,0,8
PPG,1,1729,70710587,129,74254,79147,79398.758,-251.758,1.711,0,0,0,0,69.77,69.77,0,0,0,100.00,0,1,24,1,1,1,1,0,0,0,70727782,0.03271,-0.00293,0.96265,0.96321,-0.00772,0.00079,-0.00114,0.00784,0.96321,0.01009,0.00810,3,12119,0,135,0.24953,0.09364,0.37528,100,1,100.618,83,1,3,4299,194960,0,0,0.000,16.234,12.797,0,0.000,40.386,17.289,0,0,2,0,8
PPG,1,1730,70750587,129,74285,79214,79396.914,-182.914,-60.938,0,0,0,0,69.77,69.77,0,0,0,100.00,0,1,24,1,1,2,2,0,0,0,70766738,0.04004,-0.00049,0.95044,0.95128,-0.00745,0.00052,-0.00061,0.00749,0.95585,0.00786,0.00749,3,12126,0,135,0.24953,0.09364,0.37528,100,1,100.618,83,1,3,2604,194960,0,0,0.000,16.234,12.797,0,0.000,40.386,17.289,0,0,2,0,8
PPG,1,1731,70790587,130,74297,79273,79395.672,-122.672,-118.156,0,0,0,0,69.77,69.77,0,0,0,100.00,0,1,24,1,1,3,3,0,0,0,70808391,0.03833,-0.00220,0.96777,0.96853,-0.00852,0.00105,-0.00061,0.00860,0.96853,0.00709,0.00860,3,12121,0,135,0.24953,0.09364,0.37528,100,1,100.618,83,1,3,4297,194960,0,0,0.000,16.234,12.797,0,0.000,40.386,17.289,0,0,2,0,8
PPG,1,1732,70830587,129,74334,79354,79395.258,-41.258,-169.469,0,0,0,0,69.77,69.77,0,0,0,100.00,0,1,24,1,1,4,4,0,0,0,70847376,0.03906,-0.00317,0.95728,0.95808,-0.00772,0.00105,-0.00114,0.00787,0.96579,0.00772,0.00810,3,12134,0,135,0.24953,0.09364,0.37528,100,1,100.618,83,1,3,2599,194960,0,0,0.000,16.234,12.797,0,0.000,40.386,17.289,0,0,2,0,8
PPG,1,1733,70870587,155,74330,79361,79394.914,-33.914,-204.414,1,0,1,840,69.77,69.77,0,0,0,100.00,0,1,24,1,1,5,5,0,0,0,70889016,0.03809,-0.00244,0.95825,0.95901,-0.00798,0.00185,-0.00167,0.00836,0.96122,0.00294,0.00836,3,12136,0,135,0.24953,0.09364,0.37528,100,1,100.618,83,1,3,4302,194960,0,0,139.086,16.234,12.797,1,390.852,40.386,17.289,1,1,2,0,8
PPG,1,1734,70910587,126,74311,79315,79394.117,-79.117,-199.719,0,0,0,0,69.77,69.77,0,0,0,100.00,0,1,24,1,1,6,6,0,0,0,70928026,0.03760,-0.00342,0.95728,0.95802,-0.00772,0.00105,-0.00141,0.00791,0.96425,0.00831,0.00809,3,12108,0,135,0.24953,0.09364,0.37528,100,1,100.618,83,1,3,4295,194960,0,0,0.000,16.286,12.900,0,0.000,40.424,17.323,0,0,2,0,8
PPG,1,1735,70950587,130,74305,79325,79393.430,-68.430,-168.258,0,0,0,0,69.77,69.77,0,0,0,100.00,0,1,24,1,1,7,7,0,0,0,70966980,0.03394,0.00000,0.95337,0.95397,-0.00798,0.00132,-0.00114,0.00817,0.95996,0.00473,0.00817,3,12119,0,135,0.24953,0.09364,0.37528,100,1,100.618,83,1,3,2614,194960,0,0,0.000,16.286,12.900,0,0.000,40.424,17.323,0,0,2,0,8
PPG,1,1736,70990587,129,74325,79378,79393.273,-15.273,-131.562,0,0,0,0,69.77,69.77,0,0,0,100.00,0,1,24,1,1,8,8,0,0,0,71008531,0.03760,-0.00342,0.94946,0.95021,-0.00692,0.00212,-0.00034,0.00724,0.95848,0.00799,0.00856,3,12103,0,135,0.24953,0.09364,0.37528,100,1,100.618,83,1,3,4297,194960,0,0,0.000,16.286,12.900,0,0.000,40.424,17.323,0,0,2,0,8
PPG,1,1737,71030587,131,74347,79452,79393.859,58.141,-94.859,0,0,0,0,69.77,69.77,0,0,0,100.00,0,1,24,1,1,9,9,0,0,0,71047527,0.03931,-0.00366,0.95410,0.95492,-0.00798,0.00132,-0.00061,0.00811,0.96029,0.01008,0.00811,3,12109,0,135,0.24953,0.09364,0.37528,100,1,100.618,83,1,3,4299,194960,0,0,0.000,16.286,12.900,0,0.000,40.424,17.323,0,0,2,0,8
PPG,1,1738,71070587,130,74371,79494,79394.859,99.141,-61.188,0,0,0,0,69.77,69.77,0,0,0,100.00,0,1,24,1,1,10,10,0,0,0,71086541,0.03784,-0.00659,0.95825,0.95902,-0.00745,0.00212,-0.00141,0.00787,0.96025,0.00368,0.00882,3,12154,0,135,0.24953,0.09364,0.37528,100,1,100.618,83,1,3,2653,194960,0,0,0.000,16.286,12.900,0,0.000,40.424,17.323,0,0,2,0,8
PPG,1,1739,71110587,131,74368,79519,79396.102,122.898,-35.461,0,0,0,0,69.77,69.77,0,0,0,100.00,0,1,24,1,1,11,11,0,0,0,71128549,0.03784,-0.00464,0.95752,0.95828,-0.00718,0.00079,-0.00194,0.00748,0.95846,0.00057,0.00822,3,12105,0,135,0.24953,0.09364,0.37528,100,1,100.618,83,1,3,4294,194960,0,0,0.000,16.286,12.900,0,0.000,40.424,17.323,0,0,2,0,8
PPG,1,1740,71150587,129,74383,79576,79397.898,178.102,-4.000,0,0,0,0,69.77,69.77,0,0,0,100.00,0,1,24,1,1,12,12,0,0,0,71167629,0.03589,-0.00879,0.95435,0.95506,-0.00745,0.00185,-0.00007,0.00768,0.96006,0.00553,0.00780,3,12124,0,135,0.24953,0.09364,0.37528,100,1,100.618,83,1,3,4295,194960,0,0,0.000,16.286,12.900,0,0.000,40.424,17.323,0,0,2,0,8
PPG,1,1741,71190587,521,74396,79616,79400.078,215.922,39.000,0,0,0,0,69.77,69.77,0,0,0,100.00,0,1,24,1,1,13,13,0,0,0,71206874,0.03857,-0.00293,0.95557,0.95635,-0.00745,0.00105,-0.00221,0.00784,0.96116,0.00731,0.00833,3,12307,0,135,0.22889,0.09335,0.40784,100,1,99.804,68,1,3,2609,194960,0,0,0.000,16.286,12.900,0,0.000,40.424,17.323,0,0,2,0,8
PPG,1,1742,71230587,181,74395,79620,79402.273,217.727,82.844,0,0,0,0,69.77,69.77,0,0,0,100.00,0,1,24,1,1,14,14,0,0,0,71249243,0.04053,0.00293,0.95532,0.95619,-0.00798,0.00079,-0.00114,0.00810,0.95980,0.00740,0.00839,3,12254,0,135,0.22889,0.09335,0.40784,100,1,99.804,68,1,3,4326,194960,0,0,0.000,16.286,12.900,0,0.000,40.424,17.323,0,0,2,0,8
PPG,1,1743,71270587,151,74407,79647,79404.719,242.281,123.422,0,0,0,0,69.77,69.77,0,0,0,100.00,0,1,24,1,1,15,15,0,0,0,71288674,0.03589,-0.00317,0.95435,0.95503,-0.00772,0.00025,-0.00167,0.00790,0.96534,0.00915,0.00790,3,12274,0,135,0.22889,0.09335,0.40784,100,1,99.804,68,1,3,4321,194960,0,0,0.000,16.286,12.900,0,0.000,40.424,17.323,0,0,2,0,8
PPG,1,1744,71310587,135,74405,79668,79407.352,260.648,156.477,0,0,0,0,69.77,69.77,0,0,0,100.00,0,1,24,1,1,16,16,0,0,0,71340289,0.03809,0.00244,0.95947,0.96023,-0.00745,0.00212,-0.00167,0.00792,0.96199,0.00948,0.00792,3,24486,0,136,0.22889,0.09335,0.40784,100,1,99.804,68,1,3,14788,194960,0,0,0.000,16.286,12.900,0,0.000,40.424,17.323,0,0,2,0,8
PPG,1,1745,71350587,145,74411,79668,79409.961,258.039,184.086,0,0,0,0,69.77,69.77,0,0,0,100.00,0,1,24,1,1,17,17,0,0,0,71364829,0.03467,-0.00195,0.96338,0.96400,-0.00798,0.00212,-0.00194,0.00848,0.96400,0.00776,0.00848,2,12295,0,136,0.22889,0.09335,0.40784,100,1,99.804,68,1,3,2606,194960,0,0,0.000,16.286,12.900,0,0.000,40.424,17.323,0,0,2,0,8
PPG,1,1746,71390587,127,74418,79710,79412.961,297.039,205.523,0,0,0,0,69.77,69.77,0,0,0,100.00,0,1,24,1,1,18,18,0,0,0,71409457,0.03662,-0.00342,0.95923,0.95993,-0.00798,0.00185,-0.00167,0.00836,0.95993,0.01140,0.00862,3,12262,0,137,0.22889,0.09335,0.40784,100,1,99.804,68,1,3,4337,194960,0,0,0.000,16.286,12.900,0,0.000,40.424,17.323,0,0,2,0,8
PPG,1,1747,71430587,178,74387,79625,79415.078,209.922,195.922,0,0,0,0,69.77,69.77,0,0,0,100.00,0,1,24,1,1,19,19,0,0,0,71448772,0.03784,-0.00098,0.96045,0.96119,-0.00772,0.00132,-0.00087,0.00788,0.96220,0.00563,0.00878,3,12224,0,137,0.22889,0.09335,0.40784,100,1,99.804,68,1,3,4328,194960,0,0,0.000,16.286,12.900,0,0.000,40.424,17.323,0,0,2,0,8
PPG,1,1748,71470587,141,74283,79326,79414.188,-88.188,144.742,0,1,0,0,69.77,69.77,0,0,0,100.00,0,1,24,1,1,20,20,0,0,0,71488135,0.03711,0.00098,0.96118,0.96190,-0.00692,0.00132,-0.00061,0.00707,0.96190,0.00341,0.00800,3,12245,0,137,0.22889,0.09335,0.40784,100,1,99.804,68,1,3,4354,194960,0,0,0.000,16.286,12.900,0,0.000,40.424,17.323,0,0,2,0,8
PPG,1,1749,71510587,131,74192,79084,79410.883,-326.883,71.320,0,0,0,0,69.77,69.77,0,0,0,100.00,0,1,24,1,1,21,21,0,0,0,71527613,0.03564,0.00000,0.95850,0.95916,-0.00825,0.00265,-0.00141,0.00878,0.96121,0.00544,0.00878,3,12272,0,137,0.22889,0.09335,0.40784,100,1,99.804,68,1,3,2610,194960,0,0,0.000,16.286,12.900,0,0.000,40.424,17.323,0,0,2,0,8
PPG,1,1750,71550587,129,74195,79087,79407.641,-320.641,-2.328,0,0,0,0,69.77,69.77,0,0,0,100.00,0,1,24,1,1,22,22,0,0,0,71569457,0.03760,-0.00537,0.96069,0.96144,-0.00665,0.00185,-0.00034,0.00691,0.96144,0.00669,0.00802,3,12249,0,137,0.22889,0.09335,0.40784,100,1,99.804,68,1,3,4338,194960,0,0,0.000,16.286,12.900,0,0.000,40.424,17.323,0,0,2,0,8
PPG,1,1751,71590587,130,74232,79171,79405.273,-234.273,-68.227,0,0,0,0,69.77,69.77,0,0,0,100.00,0,1,24,1,1,23,23,0,0,0,71608741,0.03662,-0.00439,0.95703,0.95774,-0.00878,0.00105,-0.00141,0.00896,0.96075,0.00301,0.00939,3,12243,0,137,0.22889,0.09335,0.40784,100,1,99.804,68,1,3,4324,194960,0,0,0.000,16.286,12.900,0,0.000,40.424,17.323,0,0,2,0,8
PPG,1,1752,71630587,139,74256,79228,79403.500,-175.500,-124.789,0,0,0,0,69.77,69.77,0,0,0,100.00,0,1,24,1,1,24,24,0,0,0,71648057,0.03833,-0.00537,0.95996,0.96074,-0.00692,0.00079,0.00019,0.00696,0.96152,0.00306,0.00838,3,12255,0,137,0.22889,0.09335,0.40784,100,1,99.804,68,1,3,4344,194960,0,0,0.000,16.286,12.900,0,0.000,40.424,17.323,0,0,2,0,8
PPG,1,1753,71670587,143,74254,79272,79402.188,-130.188,-182.906,0,0,0,0,69.77,69.77,0,0,0,100.00,0,1,24,1,1,25,25,0,0,0,71687299,0.03955,-0.00220,0.95483,0.95566,-0.00772,0.00265,-0.00114,0.00824,0.95680,0.00620,0.00824,3,12228,0,137,0.22889,0.09335,0.40784,100,1,99.804,68,1,3,2621,194960,0,0,0.000,16.286,12.900,0,0.000,40.424,17.323,0,0,2,0,8
PPG,1,1754,71710587,150,74269,79317,79401.336,-84.336,-227.008,1,0,1,840,69.77,69.77,0,0,0,100.00,0,1,24,1,1,26,26,0,0,0,71729335,0.03589,-0.00366,0.96021,0.96088,-0.00772,0.00132,-0.00141,0.00795,0.96088,0.00251,0.00795,3,12227,0,137,0.22889,0.09335,0.40784,100,1,99.804,68,1,3,4340,194960,0,0,133.812,16.286,12.900,1,409.938,40.424,17.323,1,1,2,0,8
PPG,1,1755,71750587,129,74273,79312,79400.445,-88.445,-228.359,0,0,0,0,69.77,69.77,0,0,0,100.00,0,1,24,1,1,27,27,0,0,0,71768747,0.03882,-0.00391,0.95264,0.95344,-0.00665,0.00105,-0.00167,0.00694,0.96086,0.00672,0.00831,3,12240,0,137,0.22889,0.09335,0.40784,100,1,99.804,68,1,3,4327,194960,0,0,0.000,16.300,12.926,0,0.000,40.576,17.460,0,0,2,0,8
PPG,1,1756,71790587,130,74279,79311,79399.555,-88.555,-192.578,0,0,0,0,69.77,69.77,0,0,0,100.00,0,1,24,1,1,28,28,0,0,0,71808115,0.03442,0.00049,0.95508,0.95570,-0.00825,0.00132,-0.00167,0.00852,0.95840,0.00493,0.00852,3,12324,0,137,0.22889,0.09335,0.40784,100,1,99.804,68,1,3,4306,194960,0,0,0.000,16.300,12.926,0,0.000,40.576,17.460,0,0,2,0,8
PPG,1,1757,71830587,129,74294,79350,79399.062,-49.062,-149.906,0,0,0,0,69.77,69.77,0,0,0,100.00,0,1,24,1,1,29,29,0,0,0,71847192,0.03833,-0.00073,0.95264,0.95341,-0.00772,0.00185,-0.00194,0.00817,0.96071,0.00604,0.00817,3,12214,0,137,0.22889,0.09335,0.40784,100,1,99.804,68,1,3,2604,194960,0,0,0.000,16.300,12.926,0,0.000,40.576,17.460,0,0,2,0,8
PPG,1,1758,71870587,130,74293,79417,79399.242,17.758,-110.914,0,0,0,0,69.77,69.77,0,0,0,100.00,0,1,24,1,1,30,30,0,0,0,71888907,0.03882,-0.00513,0.95825,0.95905,-0.00665,0.00212,0.00019,0.00698,0.95905,0.00269,0.00829,3,12152,0,137,0.22889,0.09335,0.40784,100,1,99.804,68,1,3,4300,194960,0,0,0.000,16.300,12.926,0,0.000,40.576,17.460,0,0,2,0,8
PPG,1,1759,71910587,130,74324,79474,79399.992,74.008,-73.523,0,0,0,0,69.77,69.77,0,0,0,100.00,0,1,24,1,1,31,31,0,0,0,71927879,0.03589,-0.00244,0.96362,0.96429,-0.00692,-0.00001,-0.00087,0.00697,0.96429,0.00659,0.00746,3,12121,0,137,0.22889,0.09335,0.40784,100,1,99.804,68,1,3,4311,194960,0,0,0.000,16.300,12.926,0,0.000,40.576,17.460,0,0,2,0,8
PPG,1,1760,71950587,129,74334,79500,79400.992,99.008,-37.148,0,0,0,0,69.77,69.77,0,0,0,100.00,0,1,24,1,1,0,0,0,0,0,71966892,0.03760,-0.00391,0.95654,0.95729,-0.00745,0.00052,-0.00061,0.00749,0.96288,0.00725,0.00762,3,12136,0,137,0.22889,0.09335,0.40784,100,1,99.804,68,1,3,2595,194960,0,0,0.000,16.300,12.926,0,0.000,40.576,17.460,0,0,2,0,8
