type,session_id,sample_index,sample_time_us,processing_time_us,red_raw,ir_raw,ir_dc,ir_ac,ir_filtered,peak_custom,peak_sparkfun,peak_accepted,ibi_ms,bpm_instant,bpm_robust,hr_status,ppg_quality,ppg_quality_flags,spo2_result,spo2_status,spo2_quality,led_amplitude,sparkfun_check_count,sparkfun_available,hw_fifo_read_ptr,hw_fifo_write_ptr,hw_fifo_overflow,suspected_drops,missing_samples,mpu_time_us,ax_g,ay_g,az_g,acc_mag_g,gx_rad_s,gy_rad_s,gz_rad_s,gyro_mag_rad_s,mpu_window_peak_g,mpu_window_delta_g,mpu_window_gyro_rad_s,mpu_window_samples,mpu_dt_us,mpu_saturated,mpu_missed_deadlines,ppg_mod_ir_pct,ppg_mod_red_pct,ppg_ratio_r,spo2_maxim,spo2_maxim_valid,spo2_custom_candidate,maxim_hr,maxim_hr_valid,measurement_state,loop_last_us,loop_max_us,display_render_us,i2c_failures,red_prominence,red_threshold,red_snr,red_candidate,ir_prominence,ir_threshold,ir_snr,ir_candidate,peak_fused,detector_state,quarantine_remaining_ms,synchronized_count
PPG,3,102576,4104591552,125,76305,82024,82489.320,-465.320,-239.039,0,0,0,0,75.00,75.00,2,1,0,nan,4,1,24,1,1,16,16,0,0,0,4105857153,0.03760,0.01050,0.95117,0.95197,-0.00612,-0.00028,-0.00141,0.00628,0.95813,0.00663,0.00677,3,12124,0,6735,0.09639,0.10258,1.06420,99,1,83.395,125,1,3,2617,187491,0,0,0.000,5.509,16.050,0,0.000,8.740,21.063,0,0,1,0,4
PPG,3,102577,4104631552,183,76286,82020,82484.625,-464.625,-234.273,0,0,0,0,75.00,75.00,2,1,0,nan,4,1,24,1,1,17,17,0,0,0,4105898711,0.03833,0.00269,0.95361,0.95439,-0.00612,-0.00028,-0.00247,0.00660,0.95439,0.00525,0.00660,3,12122,0,6735,0.09639,0.10258,1.06420,99,1,83.395,125,1,3,4303,187491,0,0,0.000,5.509,16.050,0,0.000,8.740,21.063,0,0,1,0,4
PPG,3,102578,4104671552,125,76296,82019,82479.969,-460.969,-225.508,0,0,0,0,75.00,75.00,2,1,0,nan,4,1,24,1,1,18,18,0,0,0,4105937809,0.03857,0.00562,0.95215,0.95295,-0.00505,0.00025,-0.00087,0.00513,0.95454,0.00159,0.00688,3,12128,0,6735,0.09639,0.10258,1.06420,99,1,83.395,125,1,3,4314,187491,0,0,0.000,5.509,16.050,0,0.000,8.740,21.063,0,0,1,0,4
PPG,3,102579,4104711552,129,76297,82036,82475.531,-439.531,-210.406,0,0,0,0,75.00,75.00,2,1,0,nan,4,1,24,1,1,19,19,0,0,0,4105983527,0.04102,0.00781,0.94531,0.94623,-0.00532,-0.00108,-0.00034,0.00544,0.95298,0.00669,0.00640,3,12151,0,6735,0.09639,0.10258,1.06420,99,1,83.395,125,1,3,2597,187491,0,0,0.000,5.509,16.050,0,0.000,8.740,21.063,0,0,1,0,4
PPG,3,102580,4104751552,127,76299,82046,82471.234,-425.234,-187.039,0,0,0,0,75.00,75.00,2,1,0,nan,4,1,24,1,1,20,20,0,0,0,4106019954,0.03784,0.00293,0.94751,0.94827,-0.00665,-0.00055,-0.00167,0.00688,0.94921,0.00272,0.00688,3,12161,0,6735,0.09639,0.10258,1.06420,99,1,83.395,125,1,3,4309,187491,0,0,0.000,5.509,16.050,0,0.000,8.740,21.063,0,0,1,0,4
PPG,3,102581,4104791552,125,76302,82057,82467.094,-410.094,-159.109,0,0,0,0,75.00,75.00,2,1,0,nan,4,1,24,1,1,21,21,0,0,0,4106058892,0.04004,0.00928,0.95483,0.95572,-0.00718,0.00025,-0.00087,0.00724,0.95577,0.00489,0.00724,3,12117,0,6735,0.09639,0.10258,1.06420,99,1,83.395,125,1,3,4297,187491,0,0,0.000,5.509,16.050,0,0.000,8.740,21.063,0,0,1,0,4
PPG,3,102582,4104831552,125,76304,82038,82462.805,-424.805,-133.008,0,0,0,0,75.00,75.00,2,1,0,nan,4,1,24,1,1,22,22,0,0,0,4106097836,0.03638,0.00513,0.94775,0.94847,-0.00638,-0.00081,-0.00141,0.00659,0.95453,0.00313,0.00659,3,12131,0,6735,0.09639,0.10258,1.06420,99,1,83.395,125,1,3,4306,187491,0,0,0.000,5.509,16.050,0,0.000,8.740,21.063,0,0,1,0,4
PPG,3,102583,4104871552,125,76301,82045,82458.625,-413.625,-104.359,0,0,0,0,75.00,75.00,2,1,0,nan,4,1,24,1,1,23,23,0,0,0,4106136798,0.04126,0.00391,0.95410,0.95500,-0.00585,-0.00001,-0.00194,0.00616,0.96269,0.01385,0.00627,3,12117,0,6735,0.09639,0.10258,1.06420,99,1,83.395,125,1,3,2597,187491,0,0,0.000,5.509,16.050,0,0.000,8.740,21.063,0,0,1,0,4
PPG,3,102584,4104911552,126,76328,82065,82454.688,-389.688,-74.992,0,0,0,0,75.00,75.00,2,1,0,nan,4,1,24,1,1,24,24,0,0,0,4106178360,0.03784,0.00684,0.95630,0.95707,-0.00638,0.00052,-0.00114,0.00651,0.95707,0.00348,0.00651,3,12125,0,6735,0.09639,0.10258,1.06420,99,1,83.395,125,1,3,4305,187491,0,0,0.000,5.509,16.050,0,0.000,8.740,21.063,0,0,1,0,4
PPG,3,102585,4104951552,126,76325,82082,82450.961,-368.961,-47.938,0,0,0,0,75.00,75.00,2,1,0,nan,4,1,24,1,1,25,25,0,0,0,4106217407,0.04028,0.00537,0.94824,0.94911,-0.00612,-0.00081,-0.00167,0.00639,0.94911,0.01087,0.00639,3,12143,0,6735,0.09639,0.10258,1.06420,99,1,83.395,125,1,3,2598,187491,0,0,0.000,5.509,16.050,0,0.000,8.740,21.063,0,0,1,0,4
PPG,3,102586,4104991552,124,76333,82104,82447.492,-343.492,-25.523,0,0,0,0,75.00,75.00,2,1,0,nan,4,1,24,1,1,26,26,0,0,0,4106259002,0.03833,0.00610,0.94849,0.94928,-0.00585,-0.00001,-0.00221,0.00625,0.95827,0.00899,0.00703,3,12111,0,6735,0.09639,0.10258,1.06420,99,1,83.395,125,1,3,4297,187491,0,0,0.000,5.509,16.050,0,0.000,8.740,21.063,0,0,1,0,4
PPG,3,102587,4105031552,122,76316,82063,82443.648,-380.648,-11.891,0,0,0,0,75.00,75.00,2,1,0,nan,4,1,24,1,1,27,27,0,0,0,4106297948,0.04004,0.00781,0.94531,0.94619,-0.00692,0.00025,-0.00114,0.00701,0.95398,0.00778,0.00701,3,12120,0,6735,0.09639,0.10258,1.06420,99,1,83.395,125,1,3,4304,187491,0,0,0.000,5.509,16.050,0,0.000,8.740,21.063,0,0,1,0,4
PPG,3,102588,4105071552,123,76305,81984,82439.055,-455.055,-10.117,0,0,0,0,75.00,75.00,2,1,0,nan,4,1,24,1,1,28,28,0,0,0,4106336948,0.04053,0.00586,0.95117,0.95205,-0.00479,-0.00108,-0.00114,0.00504,0.95205,0.00282,0.00685,3,12119,0,6735,0.09639,0.10258,1.06420,99,1,83.395,125,1,3,2597,187491,0,0,0.000,5.509,16.050,0,0.000,8.740,21.063,0,0,1,0,4
PPG,3,102589,4105111552,138,76268,81949,82434.156,-485.156,-10.539,0,0,0,0,75.00,75.00,2,1,0,nan,4,1,24,1,1,29,29,0,0,0,4106378479,0.03687,0.00610,0.95483,0.95556,-0.00558,-0.00135,-0.00274,0.00636,0.95556,0.00456,0.00756,3,12111,0,6735,0.09639,0.10258,1.06420,99,1,83.395,125,1,3,4297,187491,0,0,0.000,5.509,16.050,0,0.000,8.740,21.063,0,0,1,0,4
PPG,3,102590,4105151552,141,76257,82011,82429.922,-418.922,-8.188,0,0,0,0,75.00,75.00,2,1,0,nan,4,1,24,1,1,30,30,0,0,0,4106417429,0.03882,0.00488,0.95361,0.95442,-0.00612,-0.00081,-0.00087,0.00623,0.95572,0.00467,0.00719,3,12127,0,6735,0.09639,0.10258,1.06420,99,1,83.395,125,1,3,2610,187491,0,0,0.000,5.509,16.050,0,0.000,8.740,21.063,0,0,1,0,4
PPG,3,102591,4105191552,142,76254,81988,82425.500,-437.500,-11.992,0,0,0,0,75.00,75.00,2,1,0,nan,4,1,24,1,1,31,31,0,0,0,4106459024,0.03760,0.00610,0.94971,0.95047,-0.00558,-0.00028,-0.00167,0.00584,0.95155,0.00361,0.00660,3,12112,0,6735,0.09639,0.10258,1.06420,99,1,83.395,125,1,3,4308,187491,0,0,0.000,5.509,16.050,0,0.000,8.687,21.336,0,0,1,0,4
PPG,3,102592,4105231552,124,76242,81975,82420.992,-445.992,-20.680,0,0,0,0,75.00,75.00,2,1,0,nan,4,1,24,1,1,0,0,0,0,0,4106497978,0.03760,0.00708,0.94971,0.95048,-0.00532,-0.00081,-0.00034,0.00539,0.95191,0.00270,0.00539,3,12114,0,6735,0.09639,0.10258,1.06420,99,1,83.395,125,1,3,4296,187491,0,0,0.000,5.509,16.050,0,0.000,8.687,21.336,0,0,1,0,4
PPG,3,102593,4105271552,123,76234,81974,82416.523,-442.523,-35.148,0,0,0,0,75.00,75.00,2,1,0,nan,4,1,24,1,1,1,1,0,0,0,4106536964,0.04053,0.00806,0.94751,0.94841,-0.00585,0.00025,-0.00300,0.00658,0.95497,0.00656,0.00658,3,12170,0,6735,0.09639,0.10258,1.06420,99,1,83.395,125,1,3,2601,187491,0,0,0.000,5.509,16.050,0,0.000,8.687,21.336,0,0,1,0,4
PPG,3,102594,4105311552,500,76218,81940,82411.758,-471.758,-48.070,0,0,0,0,75.00,75.00,2,1,0,nan,4,0,24,1,1,2,2,0,0,0,4106578486,0.04077,0.00439,0.95361,0.95449,-0.00505,0.00052,-0.00087,0.00515,0.95449,0.00413,0.00556,3,12109,0,6735,0.25306,0.17330,0.68483,99,1,92.879,107,1,3,4296,187491,0,0,0.000,5.509,16.050,0,0.000,8.687,21.336,0,0,1,0,4
PPG,3,102595,4105351552,171,76207,81921,82406.852,-485.852,-51.617,0,0,0,0,75.00,75.00,2,1,0,nan,4,0,24,1,1,3,3,0,0,0,4106617848,0.03955,0.00586,0.94849,0.94933,-0.00558,-0.00108,-0.00247,0.00620,0.95104,0.00451,0.00689,3,12129,0,6735,0.25306,0.17330,0.68483,99,1,92.879,107,1,3,4305,187491,0,0,0.000,5.509,16.050,0,0.000,8.687,21.336,0,0,1,0,4
PPG,3,102596,4105391552,124,76211,81919,82401.977,-482.977,-50.656,1,0,0,0,75.00,75.00,2,1,0,nan,4,0,24,1,1,4,4,0,0,0,4106656948,0.03857,0.00317,0.94995,0.95074,-0.00665,-0.00135,-0.00274,0.00732,0.95131,0.00198,0.00732,3,12114,0,6735,0.25306,0.17330,0.68483,99,1,92.879,107,1,3,2597,187491,0,0,0.000,5.509,16.050,0,228.922,8.687,21.336,1,0,1,0,4
PPG,3,102597,4105431552,160,76189,81885,82396.805,-511.805,-61.906,0,0,1,980,71.43,71.43,2,1,0,nan,4,0,24,1,1,5,5,0,0,0,4106698496,0.03955,0.00928,0.95288,0.95375,-0.00612,-0.00161,-0.00167,0.00654,0.95375,0.00126,0.00694,3,12112,0,6735,0.25306,0.17330,0.68483,99,1,92.879,107,1,3,4298,187491,0,0,120.453,5.509,16.050,1,0.000,8.687,21.336,0,1,1,0,5
PPG,3,102598,4105471552,124,76146,81849,82391.328,-542.328,-73.258,0,0,0,0,71.43,71.43,2,1,0,nan,4,0,24,1,1,6,6,0,0,0,4106737536,0.03735,0.00830,0.94873,0.94950,-0.00558,-0.00135,-0.00194,0.00606,0.95769,0.00967,0.00665,3,12139,0,6735,0.25306,0.17330,0.68483,99,1,92.879,107,1,3,2604,187491,0,0,0.000,5.947,18.833,0,0.000,9.544,25.312,0,0,1,0,5
PPG,3,102599,4105511552,128,76159,81882,82386.234,-504.234,-78.852,0,0,0,0,71.43,71.43,2,1,0,nan,4,0,24,1,1,7,7,0,0,0,4106779065,0.04004,0.01123,0.94702,0.94793,-0.00665,-0.00001,-0.00141,0.00680,0.95250,0.00438,0.00770,3,12117,0,6735,0.25306,0.17330,0.68483,99,1,92.879,107,1,3,4305,187491,0,0,0.000,5.947,18.833,0,0.000,9.544,25.312,0,0,1,0,5
PPG,3,102600,4105551552,124,76183,81901,82381.383,-480.383,-82.031,0,0,0,0,71.43,71.43,2,1,0,nan,4,0,24,1,1,8,8,0,0,0,4106817988,0.03784,0.01123,0.95410,0.95492,-0.00612,-0.00135,-0.00087,0.00632,0.95492,0.00585,0.00662,3,12111,0,6735,0.25306,0.17330,0.68483,99,1,92.879,107,1,3,4297,187491,0,0,0.000,5.947,18.833,0,0.000,9.544,25.312,0,0,1,0,5
PPG,3,102601,4105591552,123,76167,81893,82376.500,-483.500,-80.539,0,0,0,0,71.43,71.43,2,1,0,nan,4,0,24,1,1,9,9,0,0,0,4106857333,0.03613,0.00586,0.95142,0.95212,-0.00452,0.00079,-0.00194,0.00498,0.95212,0.00524,0.00509,3,12281,0,6735,0.25306,0.17330,0.68483,99,1,92.879,107,1,3,2598,187491,0,0,0.000,5.947,18.833,0,0.000,9.544,25.312,0,0,1,0,5
PPG,3,102602,4105631552,124,76152,81889,82371.625,-482.625,-77.664,0,0,0,0,71.43,71.43,2,1,0,nan,4,0,24,1,1,10,10,0,0,0,4106898899,0.03760,0.00610,0.95337,0.95413,-0.00638,0.00025,-0.00114,0.00649,0.95413,0.00203,0.00649,3,12118,0,6735,0.25306,0.17330,0.68483,99,1,92.879,107,1,3,4296,187491,0,0,0.000,5.947,18.833,0,0.000,9.544,25.312,0,0,1,0,5
PPG,3,102603,4105671552,123,76177,81920,82367.109,-447.109,-71.273,0,0,0,0,71.43,71.43,2,1,0,nan,4,0,24,1,1,11,11,0,0,0,4106937863,0.03833,0.00464,0.95142,0.95220,-0.00505,-0.00001,-0.00061,0.00509,0.96530,0.01345,0.00513,3,12164,0,6735,0.25306,0.17330,0.68483,99,1,92.879,107,1,3,4305,187491,0,0,0.000,5.947,18.833,0,0.000,9.544,25.312,0,0,1,0,5
PPG,3,102604,4105711552,194,76196,81940,82362.836,-422.836,-57.164,1,0,0,0,71.43,71.43,2,1,0,nan,4,0,24,1,1,12,12,0,0,0,4106983776,0.03589,0.00879,0.94995,0.95067,-0.00479,-0.00161,-0.00194,0.00541,0.95394,0.00327,0.00631,3,12152,0,6735,0.25306,0.17330,0.68483,99,1,92.879,107,1,3,2585,187491,0,0,0.000,5.947,18.833,0,11.250,9.544,25.312,1,0,1,0,5
PPG,3,102605,4105751552,125,76190,81945,82358.656,-413.656,-36.602,0,0,0,0,71.43,71.43,2,1,0,nan,4,0,24,1,1,13,13,0,0,0,4107020460,0.03809,0.00806,0.95215,0.95294,-0.00665,0.00025,-0.00114,0.00675,0.95466,0.00342,0.00675,3,12124,0,6735,0.25306,0.17330,0.68483,99,1,92.879,107,1,3,2593,187491,0,0,0.000,5.947,18.833,0,0.000,9.544,25.312,0,0,1,0,5
PPG,3,102606,4105791552,130,76192,81934,82354.406,-420.406,-20.672,0,0,0,0,71.43,71.43,2,1,0,nan,4,0,24,1,1,14,14,0,0,0,4107057197,0.03589,0.01147,0.95093,0.95167,-0.00585,-0.00055,-0.00194,0.00619,0.95285,0.00118,0.00647,3,12262,0,6735,0.25306,0.17330,0.68483,99,1,92.879,107,1,3,2629,187491,0,0,0.000,5.947,18.833,0,0.000,9.544,25.312,0,0,1,0,5
PPG,3,102607,4105831552,125,76202,81973,82350.594,-377.594,-5.891,0,0,0,0,71.43,71.43,2,1,0,nan,4,0,24,1,1,15,15,0,0,0,4107099181,0.04102,0.00610,0.95703,0.95793,-0.00612,-0.00108,-0.00114,0.00632,0.95793,0.00502,0.00642,3,12272,0,6735,0.25306,0.17330,0.68483,99,1,92.879,107,1,3,4338,187491,0,0,0.000,5.947,18.833,0,0.000,9.544,25.312,0,0,1,0,5
PPG,3,102608,4105871552,139,76208,81995,82347.039,-352.039,8.141,0,0,0,0,71.43,71.43,2,1,512,nan,4,0,24,1,1,16,16,0,0,0,4107138438,0.03638,0.00708,0.95288,0.95360,-0.00532,-0.00055,-0.00061,0.00538,0.95360,0.00516,0.00617,3,12273,0,6735,0.25306,0.17330,0.68483,99,1,92.879,107,1,3,4347,187491,0,0,0.000,5.947,18.833,0,0.000,9.544,25.312,0,0,1,0,5
PPG,3,102609,4105911552,143,76205,82013,82343.695,-330.695,22.648,0,0,0,0,71.43,71.43,2,1,512,nan,4,0,24,1,1,17,17,0,0,0,4107177828,0.04297,0.00513,0.95313,0.95411,-0.00505,-0.00108,-0.00114,0.00529,0.95461,0.00071,0.00617,3,12242,0,6735,0.25306,0.17330,0.68483,99,1,92.879,107,1,3,4353,187491,0,0,0.000,5.947,18.833,0,0.000,9.544,25.312,0,0,1,0,5
PPG,3,102610,4105951552,125,76202,81999,82340.250,-341.250,34.539,0,0,0,0,71.43,71.43,2,1,512,nan,4,0,24,1,1,18,18,0,0,0,4107217152,0.03955,0.00562,0.95557,0.95640,-0.00612,-0.00028,-0.00061,0.00615,0.95640,0.00603,0.00615,3,12227,0,6735,0.25306,0.17330,0.68483,99,1,92.879,107,1,3,2649,187491,0,0,0.000,5.947,18.833,0,0.000,9.544,25.312,0,0,1,0,5
PPG,3,102611,4105991552,124,76204,81950,82336.344,-386.344,37.859,0,0,0,0,71.43,71.43,2,1,512,nan,4,0,24,1,1,19,19,0,0,0,4107259120,0.03882,0.00562,0.95361,0.95442,-0.00585,-0.00001,-0.00141,0.00602,0.95442,0.00946,0.00639,3,12247,0,6735,0.25306,0.17330,0.68483,99,1,92.879,107,1,3,4338,187491,0,0,0.000,5.947,18.833,0,0.000,9.544,25.312,0,0,1,0,5
PPG,3,102612,4106031552,143,76204,81905,82332.031,-427.031,35.648,0,0,0,0,71.43,71.43,2,1,512,nan,4,0,24,1,1,20,20,0,0,0,4107298413,0.03735,0.00903,0.95044,0.95122,-0.00585,-0.00028,-0.00114,0.00597,0.95163,0.00756,0.00687,3,12273,0,6735,0.25306,0.17330,0.68483,99,1,92.879,107,1,3,4316,187491,0,0,0.000,5.947,18.833,0,0.000,9.544,25.312,0,0,1,0,5
PPG,3,102613,4106071552,181,76200,81899,82327.703,-428.703,34.398,0,0,0,0,71.43,71.43,2,1,512,nan,4,0,24,1,1,21,21,0,0,0,4107337735,0.03687,0.00732,0.95361,0.95435,-0.00638,-0.00028,-0.00167,0.00661,0.95563,0.00494,0.00694,3,12266,0,6735,0.25306,0.17330,0.68483,99,1,92.879,107,1,3,4373,187491,0,0,0.000,5.947,18.833,0,0.000,9.544,25.312,0,0,1,0,5
PPG,3,102614,4106111552,144,76183,81875,82323.180,-448.180,23.648,0,0,0,0,71.43,71.43,2,1,512,nan,4,0,24,1,1,22,22,0,0,0,4107377167,0.03638,0.00220,0.95068,0.95138,-0.00612,-0.00055,-0.00221,0.00653,0.95420,0.00281,0.00720,3,12180,0,6735,0.25306,0.17330,0.68483,99,1,92.879,107,1,3,2632,187491,0,0,0.000,5.947,18.833,0,0.000,9.544,25.312,0,0,1,0,5
PPG,3,102615,4106151552,133,76197,81887,82318.820,-431.820,9.922,0,0,0,0,71.43,71.43,2,1,512,nan,4,0,24,1,1,23,23,0,0,0,4107419047,0.04004,0.00610,0.94702,0.94789,-0.00532,-0.00108,-0.00221,0.00586,0.95736,0.00711,0.00606,3,12252,0,6735,0.25306,0.17330,0.68483,99,1,92.879,107,1,3,4343,187491,0,0,0.000,5.947,18.833,0,0.000,9.544,25.312,0,0,1,0,5
PPG,3,102616,4106191552,126,76199,81903,82314.664,-411.664,-4.992,0,0,0,0,71.43,71.43,2,1,512,nan,4,0,24,1,1,24,24,0,0,0,4107458323,0.04224,0.00464,0.94995,0.95090,-0.00638,-0.00055,-0.00194,0.00669,0.95654,0.00865,0.00669,3,12240,0,6735,0.25306,0.17330,0.68483,99,1,92.879,107,1,3,4339,187491,0,0,0.000,5.947,18.833,0,0.000,9.544,25.312,0,0,1,0,5
PPG,3,102617,4106231552,124,76206,81920,82310.719,-390.719,-18.031,0,0,0,0,71.43,71.43,2,1,512,nan,4,0,24,1,1,25,25,0,0,0,4107497569,0.03833,0.00610,0.94751,0.94830,-0.00692,-0.00028,-0.00114,0.00702,0.95247,0.00756,0.00702,3,12232,0,6735,0.25306,0.17330,0.68483,99,1,92.879,107,1,3,2612,187491,0,0,0.000,5.947,18.833,0,0.000,9.544,25.312,0,0,1,0,5
PPG,3,102618,4106271552,127,76190,81888,82306.492,-418.492,-28.836,0,0,0,0,71.43,71.43,2,1,512,nan,4,0,24,1,1,26,26,0,0,0,4107539423,0.03882,0.00659,0.95117,0.95199,-0.00558,-0.00028,-0.00221,0.00601,0.95351,0.00521,0.00684,3,12245,0,6735,0.25306,0.17330,0.68483,99,1,92.879,107,1,3,4333,187491,0,0,0.000,5.947,18.833,0,0.000,9.544,25.312,0,0,1,0,5
PPG,3,102619,4106311552,518,76200,81903,82302.461,-399.461,-30.172,1,0,0,0,71.43,71.43,2,1,512,nan,4,0,24,1,1,27,27,0,0,0,4107578769,0.03833,0.00952,0.95142,0.95224,-0.00585,-0.00108,-0.00247,0.00644,0.95509,0.00614,0.00644,3,12239,0,6735,0.32266,0.21757,0.67430,99,1,93.142,150,1,3,4336,187491,0,0,0.000,5.947,18.833,0,119.891,9.544,25.312,1,0,1,0,5
PPG,3,102620,4106351552,175,76202,81925,82298.688,-373.688,-27.656,0,0,0,0,71.43,71.43,2,1,512,nan,4,0,24,1,1,28,28,0,0,0,4107618483,0.03931,0.00708,0.95142,0.95225,-0.00532,-0.00028,-0.00114,0.00545,0.95225,0.00475,0.00644,3,12235,0,6735,0.32266,0.21757,0.67430,99,1,93.142,150,1,3,4329,187491,0,0,0.000,5.947,18.833,0,0.000,9.544,25.312,0,0,1,0,5
PPG,3,102621,4106391552,151,76189,81906,82294.758,-388.758,-23.883,0,0,1,940,71.43,71.43,2,1,0,nan,4,0,24,1,1,29,29,0,0,0,4107657881,0.04150,0.00317,0.94995,0.95086,-0.00505,-0.00055,-0.00167,0.00535,0.95708,0.00985,0.00618,3,12159,0,6735,0.32266,0.21757,0.67430,99,1,93.142,150,1,3,4297,187491,0,0,80.289,5.947,18.833,1,0.000,9.544,25.312,0,1,1,0,6
PPG,3,102622,4106431552,127,76191,81904,82290.852,-386.852,-22.203,0,0,0,0,71.43,71.43,2,1,0,nan,4,0,24,1,1,30,30,0,0,0,4107697107,0.03418,0.00464,0.94922,0.94985,-0.00585,-0.00081,-0.00194,0.00622,0.95007,0.00169,0.00655,3,12118,0,6735,0.32266,0.21757,0.67430,99,1,93.142,150,1,3,2596,187491,0,0,0.000,6.079,19.671,0,0.000,9.611,25.628,0,0,1,0,6
PPG,3,102623,4106471552,125,76205,81941,82287.352,-346.352,-17.820,0,0,0,0,71.43,71.43,2,1,0,nan,4,0,24,1,1,31,31,0,0,0,4107738715,0.03979,0.00635,0.95337,0.95422,-0.00638,-0.00081,-0.00141,0.00659,0.95422,0.00375,0.00737,3,12117,0,6735,0.32266,0.21757,0.67430,99,1,93.142,150,1,3,4296,187491,0,0,0.000,6.079,19.671,0,0.000,9.611,25.628,0,0,1,0,6
PPG,3,102624,4106511552,126,76237,81975,82284.227,-309.227,-11.711,0,0,0,0,71.43,71.43,2,1,0,nan,4,0,24,1,1,0,0,0,0,0,4107777718,0.03857,0.00195,0.94995,0.95074,-0.00612,-0.00028,-0.00221,0.00651,0.95227,0.00392,0.00651,3,12121,0,6735,0.32266,0.21757,0.67430,99,1,93.142,150,1,3,2605,187491,0,0,0.000,6.079,19.671,0,0.000,9.611,25.628,0,0,1,0,6
PPG,3,102625,4106551552,125,76241,82011,82281.492,-270.492,2.562,0,0,0,0,71.43,71.43,2,1,0,nan,4,0,24,1,1,1,1,0,0,0,4107819251,0.03784,0.00659,0.94995,0.95073,-0.00532,0.00025,-0.00034,0.00533,0.95073,0.00108,0.00644,3,12126,0,6735,0.32266,0.21757,0.67430,99,1,93.142,150,1,3,4296,187491,0,0,0.000,6.079,19.671,0,0.000,9.611,25.628,0,0,1,0,6
PPG,3,102626,4106591552,128,76244,82024,82278.914,-254.914,15.344,0,0,0,0,71.43,71.43,2,1,0,nan,4,0,24,1,1,2,2,0,0,0,4107858285,0.03662,0.00146,0.95337,0.95407,-0.00505,-0.00055,-0.00167,0.00535,0.95440,0.00368,0.00588,3,12175,0,6735,0.32266,0.21757,0.67430,99,1,93.142,150,1,3,4313,187491,0,0,0.000,6.079,19.671,0,0.000,9.611,25.628,0,0,1,0,6
PPG,3,102627,4106631552,126,76251,82033,82276.453,-243.453,27.773,0,0,0,0,71.43,71.43,2,1,0,nan,4,0,24,1,1,3,3,0,0,0,4107897238,0.03979,0.00781,0.94995,0.95082,-0.00479,-0.00055,-0.00114,0.00495,0.95482,0.00269,0.00677,3,12122,0,6735,0.32266,0.21757,0.67430,99,1,93.142,150,1,3,2600,187491,0,0,0.000,6.079,19.671,0,0.000,9.611,25.628,0,0,1,0,6
PPG,3,102628,4106671552,126,76258,82073,82274.422,-201.422,47.727,0,0,0,0,71.43,71.43,2,1,0,nan,4,0,24,1,1,4,4,0,0,0,4107938782,0.03931,0.00562,0.95288,0.95371,-0.00692,-0.00081,-0.00141,0.00710,0.95371,0.00682,0.00710,3,12119,0,6735,0.32266,0.21757,0.67430,99,1,93.142,150,1,3,4306,187491,0,0,0.000,6.079,19.671,0,0.000,9.611,25.628,0,0,1,0,6
PPG,3,102629,4106711552,131,76258,82075,82272.430,-197.430,69.062,0,0,0,0,71.43,71.43,2,1,0,nan,4,0,24,1,1,5,5,0,0,0,4107984479,0.03564,0.00586,0.94922,0.94991,-0.00558,-0.00161,-0.00274,0.00643,0.95439,0.00448,0.00704,3,12156,0,6735,0.32266,0.21757,0.67430,99,1,93.142,150,1,3,2588,187491,0,0,0.000,6.079,19.671,0,0.000,9.611,25.628,0,0,1,0,6
PPG,3,102630,4106751552,129,76243,82078,82270.484,-192.484,84.680,0,0,0,0,71.43,71.43,2,1,0,nan,4,0,24,1,1,6,6,0,0,0,4108020906,0.03589,0.01050,0.95361,0.95435,-0.00612,-0.00055,-0.00247,0.00662,0.95692,0.00562,0.00662,3,12120,0,6735,0.32266,0.21757,0.67430,99,1,93.142,150,1,3,2587,187491,0,0,0.000,6.079,19.671,0,0.000,9.611,25.628,0,0,1,0,6
PPG,3,102631,4106791552,133,76265,82125,82269.031,-144.031,97.359,0,0,0,0,71.43,71.43,2,1,0,nan,4,0,24,1,1,7,7,0,0,0,4108057264,0.03906,0.00537,0.94800,0.94882,-0.00638,-0.00028,-0.00141,0.00654,0.94916,0.00519,0.00654,3,12146,0,6735,0.32266,0.21757,0.67430,99,1,93.142,150,1,3,2621,187491,0,0,0.000,6.079,19.671,0,0.000,9.611,25.628,0,0,1,0,6
PPG,3,102632,4106831552,128,76290,82185,82268.188,-83.188,108.211,0,0,0,0,71.43,71.43,2,1,0,nan,4,0,24,1,1,8,8,0,0,0,4108098861,0.03687,0.00537,0.95728,0.95800,-0.00612,-0.00081,-0.00114,0.00628,0.95800,0.00371,0.00634,3,12112,0,6735,0.32266,0.21757,0.67430,99,1,93.142,150,1,3,4298,187491,0,0,0.000,6.079,19.671,0,0.000,9.611,25.628,0,0,1,0,6
PPG,3,102633,4106871552,125,76317,82227,82267.773,-40.773,120.812,0,0,0,0,71.43,71.43,2,1,0,nan,4,0,24,1,1,9,9,0,0,0,4108137871,0.03638,0.00659,0.95190,0.95262,-0.00612,-0.00028,-0.00194,0.00642,0.95303,0.00497,0.00649,3,12122,0,6735,0.32266,0.21757,0.67430,99,1,93.142,150,1,3,2595,187491,0,0,0.000,6.079,19.671,0,0.000,9.611,25.628,0,0,1,0,6
PPG,3,102634,4106911552,127,76321,82221,82267.305,-46.305,130.367,0,1,0,0,71.43,71.43,2,1,0,nan,4,0,24,1,1,10,10,0,0,0,4108179782,0.03857,0.00513,0.95044,0.95124,-0.00585,-0.00001,-0.00167,0.00609,0.95326,0.00208,0.00708,3,12350,0,6735,0.32266,0.21757,0.67430,99,1,93.142,150,1,3,4365,187491,0,0,0.000,6.079,19.671,0,0.000,9.611,25.628,0,0,1,0,6
PPG,3,102635,4106951552,154,76279,82111,82265.742,-154.742,124.602,0,0,0,0,71.43,71.43,2,1,0,nan,4,0,24,1,1,11,11,0,0,0,4108218945,0.03955,0.00244,0.95557,0.95639,-0.00585,-0.00135,-0.00221,0.00640,0.95639,0.00755,0.00735,3,12206,0,6735,0.32266,0.21757,0.67430,99,1,93.142,150,1,3,4299,187491,0,0,0.000,6.079,19.671,0,0.000,9.611,25.628,0,0,1,0,6
PPG,3,102636,4106991552,126,76274,82069,82263.773,-194.773,115.438,0,0,0,0,71.43,71.43,2,1,0,nan,4,0,24,1,1,12,12,0,0,0,4108257902,0.03809,0.00439,0.95190,0.95268,-0.00612,-0.00135,-0.00247,0.00673,0.95268,0.01069,0.00673,3,12118,0,6735,0.32266,0.21757,0.67430,99,1,93.142,150,1,3,2595,187491,0,0,0.000,6.079,19.671,0,0.000,9.611,25.628,0,0,1,0,6
PPG,3,102637,4107031552,125,76273,82086,82261.992,-175.992,108.289,0,0,0,0,71.43,71.43,2,1,0,nan,4,0,24,1,1,13,13,0,0,0,4108299711,0.04028,0.00635,0.94556,0.94644,-0.00638,-0.00081,-0.00167,0.00665,0.95628,0.00682,0.00665,3,12209,0,6735,0.32266,0.21757,0.67430,99,1,93.142,150,1,3,4296,187491,0,0,0.000,6.079,19.671,0,0.000,9.611,25.628,0,0,1,0,6
PPG,3,102638,4107071552,143,76269,82080,82260.172,-180.172,92.258,0,0,0,0,71.43,71.43,2,1,0,nan,4,0,24,1,1,14,14,0,0,0,4108338846,0.03955,0.00854,0.95044,0.95130,-0.00585,-0.00188,-0.00087,0.00621,0.95570,0.00926,0.00621,3,12133,0,6735,0.32266,0.21757,0.67430,99,1,93.142,150,1,3,4304,187491,0,0,0.000,6.101,19.523,0,0.000,9.611,25.628,0,0,1,0,6
PPG,3,102639,4107111552,124,76273,82077,82258.344,-181.344,68.133,0,0,0,0,71.43,71.43,2,1,0,nan,4,0,24,1,1,15,15,0,0,0,4108378226,0.03979,0.00757,0.95410,0.95496,-0.00638,-0.00081,-0.00167,0.00665,0.95496,0.00867,0.00665,3,12251,0,6735,0.32266,0.21757,0.67430,99,1,93.142,150,1,3,4335,187491,0,0,0.000,6.101,19.523,0,0.000,9.611,25.628,0,0,1,0,6
PPG,3,102640,4107151552,126,76253,82093,82256.688,-163.688,40.586,0,0,0,0,71.43,71.43,2,1,0,nan,4,0,24,1,1,16,16,0,0,0,4108417555,0.03857,0.00513,0.94946,0.95026,-0.00585,-0.00161,-0.00141,0.00623,0.95026,0.00512,0.00664,3,12282,0,6735,0.32266,0.21757,0.67430,99,1,93.142,150,1,3,2630,187491,0,0,0.000,6.101,19.523,0,0.000,9.611,25.628,0,0,1,0,6
PPG,3,102641,4107191552,127,76267,82102,82255.141,-153.141,13.789,0,0,0,0,71.43,71.43,2,1,0,nan,4,0,24,1,1,17,17,0,0,0,4108459566,0.03760,0.00659,0.95483,0.95560,-0.00585,-0.00055,-0.00087,0.00594,0.95560,0.00817,0.00614,3,12269,0,6735,0.32266,0.21757,0.67430,99,1,93.142,150,1,3,4327,187491,0,0,0.000,6.101,19.523,0,0.000,9.611,25.628,0,0,1,0,6
PPG,3,102642,4107231552,181,76258,82081,82253.398,-172.398,0.648,1,0,1,880,68.18,68.18,0,0,0,nan,4,0,24,1,1,18,18,0,0,0,4108498920,0.03662,0.00830,0.94946,0.95021,-0.00612,-0.00081,-0.00167,0.00639,0.95288,0.00272,0.00709,3,12254,0,6735,0.32266,0.21757,0.67430,99,1,93.142,150,1,3,4347,187491,0,0,44.336,6.101,19.523,1,160.539,9.611,25.628,1,1,2,0,7
PPG,3,102643,4107271552,125,76263,82088,82251.742,-163.742,-3.992,0,0,0,0,68.18,68.18,0,0,0,nan,4,0,24,1,1,19,19,0,0,0,4108538308,0.03906,0.00854,0.94653,0.94738,-0.00612,-0.00001,-0.00274,0.00670,0.95261,0.00653,0.00670,3,12195,0,6735,0.32266,0.21757,0.67430,99,1,93.142,150,1,3,4353,187491,0,0,0.000,5.992,18.832,0,0.000,9.925,27.083,0,0,2,0,7
PPG,3,102644,4107311552,523,76271,82097,82250.195,-153.195,-8.508,0,0,0,0,68.18,68.18,0,0,0,nan,4,0,24,1,1,20,20,0,0,0,4108577676,0.03760,0.00537,0.95190,0.95266,-0.00558,-0.00135,-0.00114,0.00586,0.95266,0.00522,0.00701,3,12301,0,6735,0.25636,0.16921,0.66003,100,1,93.499,136,1,3,2659,187491,0,0,0.000,5.992,18.832,0,0.000,9.925,27.083,0,0,2,0,7
PPG,3,102645,4107351552,185,76282,82140,82249.094,-109.094,-6.391,0,0,0,0,68.18,68.18,0,0,0,nan,4,0,24,1,1,21,21,0,0,0,4108620046,0.04102,0.00342,0.95313,0.95401,-0.00532,-0.00055,-0.00141,0.00553,0.95401,0.00330,0.00695,3,12247,0,6735,0.25636,0.16921,0.66003,100,1,93.499,136,1,3,4351,187491,0,0,0.000,5.992,18.832,0,0.000,9.925,27.083,0,0,2,0,7
PPG,3,102646,4107391552,131,76296,82162,82248.227,-86.227,-1.148,0,0,0,0,68.18,68.18,0,0,0,nan,4,0,24,1,1,22,22,0,0,0,4108659415,0.03955,0.00562,0.95313,0.95396,-0.00585,-0.00081,-0.00167,0.00614,0.95960,0.00825,0.00622,3,12266,0,6735,0.25636,0.16921,0.66003,100,1,93.499,136,1,3,4336,187491,0,0,0.000,5.992,18.832,0,0.000,9.925,27.083,0,0,2,0,7
PPG,3,102647,4107431552,127,76310,82182,82247.562,-65.562,4.109,0,0,0,0,68.18,68.18,0,0,0,nan,4,0,24,1,1,23,23,0,0,0,4108698685,0.03809,0.00439,0.95337,0.95414,-0.00585,0.00052,-0.00141,0.00604,0.95414,0.00705,0.00604,3,12214,0,6735,0.25636,0.16921,0.66003,100,1,93.499,136,1,3,4328,187491,0,0,0.000,5.992,18.832,0,0.000,9.925,27.083,0,0,2,0,7
PPG,3,102648,4107471552,129,76316,82204,82247.125,-43.125,12.141,0,0,0,0,68.18,68.18,0,0,0,nan,4,0,24,1,1,24,24,0,0,0,4108738108,0.03564,0.00415,0.95313,0.95380,-0.00505,-0.00055,-0.00247,0.00565,0.95512,0.00701,0.00565,3,12242,0,6735,0.25636,0.16921,0.66003,100,1,93.499,136,1,3,4334,187491,0,0,0.000,5.992,18.832,0,0.000,9.925,27.083,0,0,2,0,7
PPG,3,102649,4107511552,136,76318,82208,82246.734,-38.734,23.633,0,0,0,0,68.18,68.18,0,0,0,nan,4,0,24,1,1,25,25,0,0,0,4108777416,0.03857,0.00928,0.94653,0.94736,-0.00532,-0.00081,-0.00194,0.00572,0.94922,0.00458,0.00572,3,12272,0,6735,0.25636,0.16921,0.66003,100,1,93.499,136,1,3,2633,187491,0,0,0.000,5.992,18.832,0,0.000,9.925,27.083,0,0,2,0,7
PPG,3,102650,4107551552,128,76315,82223,82246.500,-23.500,35.664,0,0,0,0,68.18,68.18,0,0,0,nan,4,0,24,1,1,26,26,0,0,0,4108819305,0.03857,0.00928,0.95093,0.95176,-0.00558,-0.00028,-0.00114,0.00571,0.95630,0.00598,0.00571,3,12228,0,6735,0.25636,0.16921,0.66003,100,1,93.499,136,1,3,4347,187491,0,0,0.000,5.992,18.832,0,0.000,9.925,27.083,0,0,2,0,7
PPG,3,102651,4107591552,127,76316,82225,82246.281,-21.281,48.953,0,0,0,0,68.18,68.18,0,0,0,nan,4,0,24,1,1,27,27,0,0,0,4108858583,0.04077,0.00879,0.95166,0.95257,-0.00612,0.00025,-0.00114,0.00623,0.95392,0.00489,0.00623,3,12221,0,6735,0.25636,0.16921,0.66003,100,1,93.499,136,1,3,4337,187491,0,0,0.000,5.992,18.832,0,0.000,9.925,27.083,0,0,2,0,7
PPG,3,102652,4107631552,128,76332,82250,82246.320,3.680,61.414,0,0,0,0,68.18,68.18,0,0,0,nan,4,0,24,1,1,28,28,0,0,0,4108897923,0.03589,0.00806,0.95435,0.95505,-0.00692,-0.00055,-0.00194,0.00720,0.95505,0.00242,0.00720,3,12262,0,6735,0.25636,0.16921,0.66003,100,1,93.499,136,1,3,2622,187491,0,0,0.000,5.992,18.832,0,0.000,9.925,27.083,0,0,2,0,7
PPG,3,102653,4107671552,129,76332,82279,82246.648,32.352,75.531,0,0,0,0,68.18,68.18,0,0,0,nan,4,0,24,1,1,29,29,0,0,0,4108939792,0.03784,0.00562,0.95581,0.95658,-0.00558,-0.00108,-0.00167,0.00593,0.95658,0.00345,0.00653,3,12237,0,6735,0.25636,0.16921,0.66003,100,1,93.499,136,1,3,4346,187491,0,0,0.000,5.992,18.832,0,0.000,9.925,27.083,0,0,2,0,7
PPG,3,102654,4107711552,135,76336,82290,82247.078,42.922,87.508,0,0,0,0,68.18,68.18,0,0,0,nan,4,0,24,1,1,30,30,0,0,0,4108974178,0.04004,0.00562,0.94238,0.94325,-0.00612,-0.00055,-0.00141,0.00630,0.95464,0.01139,0.00685,2,19644,0,6735,0.25636,0.16921,0.66003,100,1,93.499,136,1,3,2585,187491,0,0,0.000,5.992,18.832,0,0.000,9.925,27.083,0,0,2,0,7
PPG,3,102655,4107751552,150,76333,82296,82247.570,48.430,91.398,0,0,0,0,68.18,68.18,0,0,0,nan,4,0,24,1,1,31,31,0,0,0,4109018711,0.04126,0.00854,0.95020,0.95113,-0.00505,-0.00188,-0.00167,0.00564,0.95113,0.00712,0.00710,3,12212,0,6736,0.25636,0.16921,0.66003,100,1,93.499,136,1,3,4302,187491,0,0,0.000,5.992,18.832,0,0.000,9.925,27.083,0,0,2,0,7
PPG,3,102656,4107791552,128,76340,82313,82248.227,64.773,94.203,0,0,0,0,68.18,68.18,0,0,0,nan,4,0,24,1,1,0,0,0,0,0,4109057749,0.03418,0.00586,0.95142,0.95205,-0.00532,-0.00028,-0.00194,0.00567,0.95205,0.00274,0.00670,3,12121,0,6736,0.25636,0.16921,0.66003,100,1,93.499,136,1,3,2600,187491,0,0,0.000,5.992,18.832,0,0.000,9.925,27.083,0,0,2,0,7
PPG,3,102657,4107831552,147,76325,82280,82248.547,31.453,92.641,0,0,0,0,68.18,68.18,0,0,0,nan,4,0,24,1,1,1,1,0,0,0,4109099380,0.04248,0.00488,0.94800,0.94896,-0.00612,0.00052,-0.00247,0.00662,0.95272,0.00376,0.00662,3,12155,0,6736,0.25636,0.16921,0.66003,100,1,93.499,136,1,3,4313,187491,0,0,0.000,5.992,18.832,0,0.000,9.925,27.083,0,0,2,0,7
PPG,3,102658,4107871552,128,76280,82205,82248.109,-43.109,83.539,0,0,0,0,68.18,68.18,0,0,0,nan,4,0,24,1,1,2,2,0,0,0,4109138356,0.03564,0.00708,0.95337,0.95406,-0.00558,-0.00001,-0.00247,0.00611,0.96035,0.00789,0.00611,3,12130,0,6736,0.25636,0.16921,0.66003,100,1,93.499,136,1,3,4311,187491,0,0,0.000,5.992,18.832,0,0.000,9.925,27.083,0,0,2,0,7
PPG,3,102659,4107911552,128,76249,82134,82246.969,-112.969,64.109,0,0,0,0,68.18,68.18,0,0,0,nan,4,0,24,1,1,3,3,0,0,0,4109177306,0.04053,0.00903,0.94556,0.94647,-0.00665,-0.00055,-0.00114,0.00677,0.95138,0.00281,0.00677,3,12130,0,6736,0.25636,0.16921,0.66003,100,1,93.499,136,1,3,2625,187491,0,0,0.000,5.992,18.832,0,0.000,9.925,27.083,0,0,2,0,7
PPG,3,102660,4107951552,128,76258,82131,82245.812,-114.812,41.070,0,0,0,0,68.18,68.18,0,0,0,nan,4,0,24,1,1,4,4,0,0,0,4109218891,0.03979,0.00635,0.94824,0.94910,-0.00612,-0.00028,-0.00194,0.00642,0.95224,0.00577,0.00678,3,12142,0,6736,0.25636,0.16921,0.66003,100,1,93.499,136,1,3,4301,187491,0,0,0.000,5.992,18.832,0,0.000,9.925,27.083,0,0,2,0,7
PPG,3,102661,4107991552,129,76248,82146,82244.812,-98.812,18.297,0,0,0,0,68.18,68.18,0,0,0,nan,4,0,24,1,1,5,5,0,0,0,4109257906,0.04004,0.00391,0.95410,0.95495,-0.00532,0.00025,-0.00274,0.00599,0.95495,0.00499,0.00599,3,12116,0,6736,0.25636,0.16921,0.66003,100,1,93.499,136,1,3,2595,187491,0,0,0.000,5.992,18.832,0,0.000,9.925,27.083,0,0,2,0,7
PPG,3,102662,4108031552,128,76265,82179,82244.156,-65.156,-3.312,0,0,0,0,68.18,68.18,0,0,0,nan,4,0,24,1,1,6,6,0,0,0,4109299563,0.03857,0.00562,0.94678,0.94758,-0.00558,-0.00108,-0.00061,0.00572,0.95345,0.00342,0.00660,3,12150,0,6736,0.25636,0.16921,0.66003,100,1,93.499,136,1,3,4301,187491,0,0,35.664,5.992,18.832,1,0.000,9.925,27.083,0,0,2,0,7
PPG,3,102663,4108071552,128,76297,82192,82243.633,-51.633,-25.797,0,0,0,0,68.18,68.18,0,0,0,nan,4,0,24,1,1,7,7,0,0,0,4109338555,0.03760,0.00952,0.94971,0.95050,-0.00505,-0.00108,-0.00167,0.00543,0.95477,0.00488,0.00563,3,12119,0,6736,0.25636,0.16921,0.66003,100,1,93.499,136,1,3,4297,187491,0,0,0.000,5.992,18.832,0,0.000,9.925,27.083,0,0,2,0,7
PPG,3,102664,4108111552,221,76294,82192,82243.117,-51.117,-43.117,1,0,1,840,71.43,71.43,0,0,0,nan,4,0,24,1,1,8,8,0,0,0,4109377487,0.03760,0.01196,0.95654,0.95736,-0.00612,-0.00055,-0.00141,0.00630,0.95736,0.01399,0.00630,3,12110,0,6736,0.25636,0.16921,0.66003,100,1,93.499,136,1,3,2601,187491,0,0,0.000,5.992,18.832,0,102.711,9.925,27.083,1,1,2,0,7
PPG,3,102665,4108151552,127,76287,82197,82242.656,-45.656,-47.109,0,0,0,0,71.43,71.43,0,0,0,nan,4,0,24,1,1,9,9,0,0,0,4109419241,0.03833,0.00562,0.95190,0.95269,-0.00718,-0.00001,-0.00141,0.00732,0.95550,0.00357,0.00732,3,12121,0,6736,0.25636,0.16921,0.66003,100,1,93.499,136,1,3,4302,187491,0,0,0.000,5.842,17.885,0,0.000,9.838,26.678,0,0,2,0,7
PPG,3,102666,4108191552,128,76312,82220,82242.430,-22.430,-37.727,0,0,0,0,71.43,71.43,0,0,0,nan,4,0,24,1,1,10,10,0,0,0,4109458155,0.03735,0.00879,0.95093,0.95170,-0.00585,-0.00081,-0.00061,0.00594,0.95170,0.00334,0.00662,3,12116,0,6736,0.25636,0.16921,0.66003,100,1,93.499,136,1,3,2604,187491,0,0,0.000,5.842,17.885,0,0.000,9.838,26.678,0,0,2,0,7
PPG,3,102667,4108231552,127,76298,82221,82242.219,-21.219,-26.820,0,0,0,0,71.43,71.43,0,0,0,nan,4,0,24,1,1,11,11,0,0,0,4109499755,0.04028,0.00122,0.94824,0.94910,-0.00665,-0.00161,-0.00141,0.00699,0.95297,0.00387,0.00724,3,12161,0,6736,0.25636,0.16921,0.66003,100,1,93.499,136,1,3,4295,187491,0,0,0.000,5.842,17.885,0,0.000,9.838,26.678,0,0,2,0,7
PPG,3,102668,4108271552,129,76277,82206,82241.859,-35.859,-18.352,0,0,0,0,71.43,71.43,0,0,0,nan,4,0,24,1,1,12,12,0,0,0,4109538705,0.03491,0.00293,0.95020,0.95084,-0.00558,0.00052,-0.00274,0.00624,0.95518,0.00608,0.00628,3,12128,0,6736,0.25636,0.16921,0.66003,100,1,93.499,136,1,3,4300,187491,0,0,0.000,5.842,17.885,0,0.000,9.838,26.678,0,0,2,0,7
PPG,3,102669,4108311552,515,76267,82227,82241.711,-14.711,-12.438,0,0,0,0,71.43,71.43,0,0,0,99.00,0,1,24,1,1,13,13,0,0,0,4109577629,0.04004,0.00366,0.95459,0.95544,-0.00585,0.00025,-0.00194,0.00617,0.95544,0.00721,0.00685,3,12109,0,6736,0.14580,0.06926,0.47503,99,1,98.124,150,1,3,2595,187491,0,0,0.000,5.842,17.885,0,0.000,9.838,26.678,0,0,2,0,7
PPG,3,102670,4108351552,177,76313,82281,82242.102,38.898,-2.633,0,0,0,0,71.43,71.43,0,0,0,99.00,0,1,24,1,1,14,14,0,0,0,4109619669,0.04028,0.01001,0.95752,0.95842,-0.00452,0.00025,-0.00327,0.00558,0.95842,0.00613,0.00628,3,12114,0,6736,0.14580,0.06926,0.47503,99,1,98.124,150,1,3,4300,187491,0,0,0.000,5.842,17.885,0,0.000,9.838,26.678,0,0,2,0,7
PPG,3,102671,4108391552,126,76315,82283,82242.508,40.492,7.469,0,0,0,0,71.43,71.43,0,0,0,99.00,0,1,24,1,1,15,15,0,0,0,4109658693,0.03979,0.00757,0.95630,0.95716,-0.00558,-0.00055,-0.00194,0.00594,0.95716,0.00826,0.00679,3,12128,0,6736,0.14580,0.06926,0.47503,99,1,98.124,150,1,3,4307,187491,0,0,0.000,5.842,17.885,0,0.000,9.838,26.678,0,0,2,0,7
PPG,3,102672,4108431552,127,76317,82296,82243.039,52.961,19.312,0,0,0,0,71.43,71.43,0,0,0,99.00,0,1,24,1,1,16,16,0,0,0,4109697648,0.03711,0.00781,0.94922,0.94998,-0.00612,-0.00108,-0.00141,0.00637,0.95061,0.00654,0.00637,3,12129,0,6736,0.14580,0.06926,0.47503,99,1,98.124,150,1,3,2605,187491,0,0,0.000,5.842,17.885,0,0.000,9.838,26.678,0,0,2,0,7
PPG,3,102673,4108471552,127,76325,82329,82243.898,85.102,32.391,0,0,0,0,71.43,71.43,0,0,0,99.00,0,1,24,1,1,17,17,0,0,0,4109739273,0.03857,0.00757,0.94556,0.94637,-0.00612,-0.00028,-0.00221,0.00651,0.95705,0.00708,0.00702,3,12126,0,6736,0.14580,0.06926,0.47503,99,1,98.124,150,1,3,4315,187491,0,0,0.000,5.842,17.885,0,0.000,9.838,26.678,0,0,2,0,7
PPG,3,102674,4108511552,127,76346,82358,82245.039,112.961,48.562,0,0,0,0,71.43,71.43,0,0,0,99.00,0,1,24,1,1,18,18,0,0,0,4109778249,0.03809,0.00757,0.95483,0.95562,-0.00585,-0.00055,-0.00194,0.00619,0.95562,0.00616,0.00731,3,12128,0,6736,0.14580,0.06926,0.47503,99,1,98.124,150,1,3,2597,187491,0,0,0.000,5.842,17.885,0,0.000,9.838,26.678,0,0,2,0,7
PPG,3,102675,4108551552,128,76349,82361,82246.195,114.805,67.453,0,0,0,0,71.43,71.43,0,0,0,99.00,0,1,24,1,1,19,19,0,0,0,4109819907,0.04028,0.00635,0.95654,0.95741,-0.00585,-0.00161,-0.00194,0.00637,0.95741,0.00717,0.00654,3,12124,0,6736,0.14580,0.06926,0.47503,99,1,98.124,150,1,3,4296,187491,0,0,0.000,5.842,17.885,0,0.000,9.838,26.678,0,0,2,0,7
PPG,3,102676,4108591552,127,76331,82335,82247.086,87.914,81.781,0,0,0,0,71.43,71.43,0,0,0,99.00,0,1,24,1,1,20,20,0,0,0,4109858875,0.03687,0.00684,0.95825,0.95899,-0.00558,-0.00028,-0.00141,0.00577,0.95899,0.00801,0.00656,3,12134,0,6736,0.14580,0.06926,0.47503,99,1,98.124,150,1,3,4301,187491,0,0,0.000,5.842,17.885,0,0.000,9.838,26.678,0,0,2,0,7
PPG,3,102677,4108631552,161,76268,82279,82247.406,31.594,81.539,0,0,0,0,71.43,71.43,0,0,0,99.00,0,1,24,1,1,21,21,0,0,0,4109897836,0.03882,0.00781,0.95508,0.95590,-0.00479,0.00079,-0.00194,0.00522,0.95590,0.00951,0.00675,3,12124,0,6736,0.14580,0.06926,0.47503,99,1,98.124,150,1,3,2595,187491,0,0,0.000,5.842,17.885,0,0.000,9.838,26.678,0,0,2,0,7
PPG,3,102678,4108671552,127,76250,82279,82247.719,31.281,77.273,0,0,0,0,71.43,71.43,0,0,0,99.00,0,1,24,1,1,22,22,0,0,0,4109939479,0.03979,0.00537,0.94922,0.95007,-0.00532,0.00052,-0.00194,0.00568,0.95758,0.00581,0.00609,3,12118,0,6736,0.14580,0.06926,0.47503,99,1,98.124,150,1,3,4297,187491,0,0,0.000,5.842,17.885,0,0.000,9.838,26.678,0,0,2,0,7
PPG,3,102679,4108711552,141,76289,82289,82248.133,40.867,68.523,0,0,0,0,71.43,71.43,0,0,0,99.00,0,1,24,2,2,24,24,0,0,0,4110031164,0.03882,0.00684,0.95703,0.95784,-0.00532,-0.00055,-0.00167,0.00560,0.95784,0.00831,0.00617,3,58104,0,6740,0.14580,0.06926,0.47503,99,1,98.124,150,1,3,58040,187491,0,0,0.000,5.842,17.885,0,0.000,9.838,26.678,0,0,2,0,7
PPG,3,102680,4108751552,38,76283,82228,82247.930,-19.930,49.242,0,0,0,0,71.43,71.43,0,0,0,99.00,0,1,24,2,2,24,24,0,0,0,4110031164,0.03882,0.00684,0.95703,0.95784,-0.00532,-0.00055,-0.00167,0.00560,0.00000,0.00000,0.00000,0,58104,0,6740,0.14580,0.06926,0.47503,99,1,98.124,150,1,3,58040,187491,0,0,0.000,5.842,17.885,0,0.000,9.838,26.678,0,0,2,0,7
PPG,3,102681,4108791552,129,76244,82145,82246.898,-101.898,18.859,0,0,0,0,71.43,71.43,0,0,0,99.00,0,1,24,1,1,25,25,0,0,0,4110057175,0.04272,0.00732,0.95410,0.95509,-0.00505,-0.00055,-0.00221,0.00554,0.95509,0.00351,0.00576,2,12562,0,6740,0.14580,0.06926,0.47503,99,1,98.124,150,1,3,2607,187491,0,0,0.000,5.842,17.885,0,0.000,9.838,26.678,0,0,2,0,7
PPG,3,102682,4108831552,128,76248,82117,82245.602,-128.602,-12.891,0,0,0,0,71.43,71.43,0,0,0,99.00,0,1,24,1,1,26,26,0,0,0,4110098749,0.04053,0.00537,0.94531,0.94620,-0.00558,-0.00108,-0.00167,0.00593,0.95425,0.00654,0.00706,3,12124,0,6740,0.14580,0.06926,0.47503,99,1,98.124,150,1,3,4303,187491,0,0,0.000,5.842,17.885,0,0.000,9.838,26.678,0,0,2,0,7
PPG,3,102683,4108871552,128,76247,82123,82244.375,-121.375,-39.727,0,0,0,0,71.43,71.43,0,0,0,99.00,0,1,24,1,1,27,27,0,0,0,4110138214,0.03760,0.00708,0.95874,0.95950,-0.00638,-0.00055,-0.00221,0.00678,0.95950,0.01237,0.00678,3,12310,0,6740,0.14580,0.06926,0.47503,99,1,98.124,150,1,3,2606,187491,0,0,0.000,5.842,17.885,0,0.000,9.838,26.678,0,0,2,0,7
PPG,3,102684,4108911552,150,76233,82120,82243.133,-123.133,-58.844,1,0,1,840,71.43,71.43,0,0,0,99.00,0,1,24,1,1,28,28,0,0,0,4110179851,0.04199,0.00415,0.95288,0.95381,-0.00585,-0.00001,-0.00061,0.00588,0.95465,0.00486,0.00645,3,12109,0,6740,0.14580,0.06926,0.47503,99,1,98.124,150,1,3,4297,187491,0,0,62.312,5.842,17.885,1,128.891,9.838,26.678,1,1,2,0,7
PPG,3,102685,4108951552,135,76249,82125,82241.953,-116.953,-77.242,0,0,0,0,71.43,71.43,0,0,0,99.00,0,1,24,1,1,29,29,0,0,0,4110218998,0.04053,0.00659,0.95068,0.95157,-0.00585,-0.00028,-0.00114,0.00597,0.95494,0.00464,0.00615,3,12205,0,6740,0.14580,0.06926,0.47503,99,1,98.124,150,1,3,4306,187491,0,0,0.000,5.877,18.109,0,0.000,9.925,27.084,0,0,2,0,7
PPG,3,102686,4108991552,150,76260,82152,82241.055,-89.055,-93.414,0,0,0,0,71.43,71.43,0,0,0,99.00,0,1,24,1,1,30,30,0,0,0,4110258081,0.04224,0.00073,0.94604,0.94699,-0.00585,0.00052,-0.00114,0.00598,0.95759,0.01060,0.00598,3,12117,0,6740,0.14580,0.06926,0.47503,99,1,98.124,150,1,3,2600,187491,0,0,0.000,5.743,18.952,0,0.000,9.925,27.084,0,0,2,0,7
PPG,3,102687,4109031552,208,76272,82163,82240.273,-77.273,-99.797,0,0,0,0,71.43,71.43,0,0,0,99.00,0,1,24,1,1,31,31,0,0,0,4110299860,0.04102,0.01001,0.95483,0.95577,-0.00585,-0.00081,-0.00194,0.00622,0.95577,0.00620,0.00622,3,12118,0,6740,0.14580,0.06926,0.47503,99,1,98.124,150,1,3,4298,187491,0,0,0.000,5.743,18.952,0,0.000,9.925,27.084,0,0,2,0,7
PPG,3,102688,4109071552,128,76257,82150,82239.367,-89.367,-96.289,0,0,0,0,71.43,71.43,0,0,0,99.00,0,1,24,1,1,0,0,0,0,0,4110339261,0.03809,0.00342,0.95288,0.95365,-0.00505,-0.00135,-0.00167,0.00549,0.95365,0.00885,0.00710,3,12245,0,6740,0.14580,0.06926,0.47503,99,1,98.124,150,1,3,4355,187491,0,0,0.000,5.743,18.952,0,0.000,9.925,27.084,0,0,2,0,7
PPG,3,102689,4109111552,130,76257,82159,82238.562,-79.562,-86.891,0,0,0,0,71.43,71.43,0,0,0,99.00,0,1,24,1,1,1,1,0,0,0,4110378628,0.03931,0.00586,0.94824,0.94907,-0.00638,-0.00001,-0.00221,0.00675,0.95432,0.00712,0.00675,3,12272,0,6740,0.14580,0.06926,0.47503,99,1,98.124,150,1,3,2644,187491,0,0,0.000,5.743,18.952,0,0.000,9.925,27.084,0,0,2,0,7
PPG,3,102690,4109151552,151,76269,82175,82237.930,-62.930,-74.156,0,0,0,0,71.43,71.43,0,0,0,99.00,0,1,24,1,1,2,2,0,0,0,4110420701,0.03784,0.00610,0.94629,0.94707,-0.00532,-0.00081,-0.00167,0.00563,0.96204,0.01497,0.00616,3,12293,0,6740,0.14580,0.06926,0.47503,99,1,98.124,150,1,3,4336,187491,0,0,0.000,5.743,18.952,0,0.000,9.925,27.084,0,0,2,0,7
PPG,3,102691,4109191552,130,76268,82189,82237.438,-48.438,-59.602,0,0,0,0,71.43,71.43,0,0,0,99.00,0,1,24,1,1,3,3,0,0,0,4110460085,0.04175,0.00439,0.95142,0.95234,-0.00558,-0.00161,-0.00087,0.00588,0.95234,0.00468,0.00680,3,12269,0,6740,0.14580,0.06926,0.47503,99,1,98.124,150,1,3,4339,187491,0,0,0.000,5.743,18.952,0,0.000,9.925,27.084,0,0,2,0,7
PPG,3,102692,4109231552,129,76284,82220,82237.266,-17.266,-42.227,0,0,0,0,71.43,71.43,0,0,0,99.00,0,1,24,1,1,4,4,0,0,0,4110499516,0.03809,0.00732,0.95239,0.95318,-0.00479,0.00025,-0.00221,0.00527,0.95318,0.00342,0.00668,3,12253,0,6740,0.14580,0.06926,0.47503,99,1,98.124,150,1,3,4342,187491,0,0,0.000,5.743,18.952,0,0.000,9.925,27.084,0,0,2,0,7
PPG,3,102693,4109271552,135,76297,82258,82237.477,20.523,-23.539,0,0,0,0,71.43,71.43,0,0,0,99.00,0,1,24,1,1,5,5,0,0,0,4110538840,0.04102,0.00513,0.94995,0.95085,-0.00558,-0.00028,-0.00247,0.00611,0.95467,0.00693,0.00611,3,12247,0,6740,0.14580,0.06926,0.47503,99,1,98.124,150,1,3,4336,187491,0,0,0.000,5.743,18.952,0,0.000,9.925,27.084,0,0,2,0,7
PPG,3,102694,4109311552,521,76334,82296,82238.062,57.938,-1.438,0,0,0,0,71.43,71.43,0,0,0,99.00,0,1,24,1,1,6,6,0,0,0,4110578104,0.03809,0.00806,0.95215,0.95294,-0.00638,-0.00028,-0.00327,0.00718,0.95526,0.00757,0.00734,3,12264,0,6740,0.17259,0.06629,0.38412,99,1,100.397,300,1,3,2621,187491,0,0,0.000,5.743,18.952,0,0.000,9.925,27.084,0,0,2,0,7
PPG,3,102695,4109351552,195,76353,82327,82238.953,88.047,25.547,0,0,0,0,71.43,71.43,0,0,0,99.00,0,1,24,1,1,7,7,0,0,0,4110620662,0.03784,0.00732,0.95557,0.95634,-0.00665,-0.00028,-0.00167,0.00686,0.95634,0.00925,0.00709,3,12285,0,6740,0.17259,0.06629,0.38412,99,1,100.397,300,1,3,4349,187491,0,0,0.000,5.743,18.952,0,0.000,9.925,27.084,0,0,2,0,7
PPG,3,102696,4109391552,136,76333,82329,82239.852,89.148,50.141,0,0,0,0,71.43,71.43,0,0,0,99.00,0,1,24,1,1,8,8,0,0,0,4110660017,0.03711,0.00830,0.95117,0.95193,-0.00638,-0.00028,-0.00327,0.00718,0.95344,0.00464,0.00718,3,12204,0,6740,0.17259,0.06629,0.38412,99,1,100.397,300,1,3,4320,187491,0,0,0.000,5.743,18.952,0,0.000,9.925,27.084,0,0,2,0,7
PPG,3,102697,4109431552,129,76336,82324,82240.695,83.305,69.172,0,0,0,0,71.43,71.43,0,0,0,99.00,0,1,24,1,1,9,9,0,0,0,4110699321,0.03516,0.00659,0.95459,0.95526,-0.00425,0.00025,-0.00167,0.00458,0.95785,0.00460,0.00662,3,12234,0,6740,0.17259,0.06629,0.38412,99,1,100.397,300,1,3,4340,187491,0,0,0.000,5.743,18.952,0,0.000,9.925,27.084,0,0,2,0,7
PPG,3,102698,4109471552,129,76351,82370,82241.992,128.008,90.477,0,0,0,0,71.43,71.43,0,0,0,99.00,0,1,24,1,1,10,10,0,0,0,4110738661,0.03882,0.00732,0.95288,0.95370,-0.00638,0.00105,-0.00141,0.00662,0.95853,0.00605,0.00662,3,12255,0,6740,0.17259,0.06629,0.38412,99,1,100.397,300,1,3,2649,187491,0,0,0.000,5.743,18.952,0,0.000,9.925,27.084,0,0,2,0,7
PPG,3,102699,4109511552,134,76375,82389,82243.461,145.539,109.617,0,0,0,0,71.43,71.43,0,0,0,99.00,0,1,24,1,1,11,11,0,0,0,4110780595,0.03711,0.00366,0.94775,0.94849,-0.00638,-0.00055,-0.00194,0.00669,0.95510,0.00661,0.00763,3,12225,0,6740,0.17259,0.06629,0.38412,99,1,100.397,300,1,3,4314,187491,0,0,0.000,5.743,18.952,0,0.000,9.925,27.084,0,0,2,0,7
PPG,3,102700,4109551552,211,76370,82418,82245.203,172.797,122.977,0,0,0,0,71.43,71.43,0,0,0,99.00,0,1,24,1,1,12,12,0,0,0,4110819855,0.03589,0.00757,0.95190,0.95261,-0.00505,-0.00081,-0.00221,0.00557,0.95571,0.00722,0.00598,3,12236,0,6740,0.17259,0.06629,0.38412,99,1,100.397,300,1,3,4353,187491,0,0,0.000,5.743,18.952,0,0.000,9.925,27.084,0,0,2,0,7
PPG,3,102701,4109591552,133,76387,82441,82247.164,193.836,128.891,0,1,0,0,71.43,71.43,0,0,0,99.00,0,1,24,1,1,13,13,0,0,0,4110859362,0.03662,0.00488,0.95142,0.95213,-0.00505,-0.00001,-0.00194,0.00541,0.95213,0.00442,0.00592,3,12247,0,6740,0.17259,0.06629,0.38412,99,1,100.397,300,1,3,4342,187491,0,0,0.000,5.743,18.952,0,0.000,9.925,27.084,0,0,2,0,7
PPG,3,102702,4109631552,166,76394,82425,82248.945,176.055,127.492,0,0,0,0,71.43,71.43,0,0,0,99.00,0,1,24,1,1,14,14,0,0,0,4110898665,0.03711,0.00488,0.95532,0.95606,-0.00558,0.00079,-0.00194,0.00596,0.95606,0.00554,0.00596,3,12241,0,6740,0.17259,0.06629,0.38412,99,1,100.397,300,1,3,2639,187491,0,0,0.000,5.743,18.952,0,0.000,9.925,27.084,0,0,2,0,7
PPG,3,102703,4109671552,130,76336,82307,82249.523,57.477,115.148,0,0,0,0,71.43,71.43,0,0,0,99.00,0,1,24,1,1,15,15,0,0,0,4110940570,0.03687,0.01050,0.95337,0.95414,-0.00585,-0.00028,-0.00194,0.00617,0.95414,0.00666,0.00693,3,12149,0,6740,0.17259,0.06629,0.38412,99,1,100.397,300,1,3,4327,187491,0,0,0.000,5.743,18.952,0,0.000,9.925,27.084,0,0,2,0,7
PPG,3,102704,4109711552,137,76315,82243,82249.461,-6.461,97.430,0,0,0,0,71.43,71.43,0,0,0,99.00,0,1,24,1,1,16,16,0,0,0,4110974335,0.03442,0.00562,0.95337,0.95401,-0.00585,-0.00108,-0.00141,0.00611,0.95488,0.00087,0.00611,2,18990,0,6740,0.17259,0.06629,0.38412,99,1,100.397,300,1,3,2593,187491,0,0,0.000,5.743,18.952,0,0.000,9.925,27.084,0,0,2,0,7
PPG,3,102705,4109751552,132,76303,82209,82249.055,-40.055,70.227,0,0,0,0,71.43,71.43,0,0,0,99.00,0,1,24,1,1,17,17,0,0,0,4111018575,0.03638,0.00439,0.94995,0.95066,-0.00558,-0.00135,-0.00087,0.00581,0.95085,0.00403,0.00676,3,12127,0,6740,0.17259,0.06629,0.38412,99,1,100.397,300,1,3,2598,187491,0,0,0.000,5.743,18.952,0,0.000,9.925,27.084,0,0,2,0,7
PPG,3,102706,4109791552,130,76289,82197,82248.531,-51.531,40.547,0,0,0,0,71.43,71.43,0,0,0,99.00,0,1,24,1,1,18,18,0,0,0,4111060193,0.03906,0.00806,0.95679,0.95762,-0.00638,-0.00055,-0.00167,0.00662,0.95762,0.00500,0.00705,3,12122,0,6740,0.17259,0.06629,0.38412,99,1,100.397,300,1,3,4298,187491,0,0,0.000,5.743,18.952,0,0.000,9.925,27.084,0,0,2,0,7
PPG,3,102707,4109831552,131,76284,82178,82247.828,-69.828,5.508,0,0,0,0,71.43,71.43,0,0,0,99.00,0,1,24,1,1,19,19,0,0,0,4111099161,0.03784,0.00854,0.94995,0.95074,-0.00638,-0.00081,-0.00141,0.00659,0.95784,0.00491,0.00679,3,12121,0,6740,0.17259,0.06629,0.38412,99,1,100.397,300,1,3,4300,187491,0,0,0.000,5.743,18.952,0,0.000,9.925,27.084,0,0,2,0,7
PPG,3,102708,4109871552,130,76288,82201,82247.359,-46.359,-31.320,0,0,0,0,71.43,71.43,0,0,0,99.00,0,1,24,1,1,20,20,0,0,0,4111138160,0.03809,0.00269,0.95093,0.95169,-0.00532,0.00025,-0.00141,0.00551,0.95404,0.00714,0.00667,3,12171,0,6740,0.17259,0.06629,0.38412,99,1,100.397,300,1,3,2604,187491,0,0,0.000,5.743,18.952,0,0.000,9.925,27.084,0,0,2,0,7
PPG,3,102709,4109911552,153,76287,82205,82246.938,-41.938,-65.047,1,0,1,1000,68.18,68.18,0,0,0,99.00,0,1,24,1,1,21,21,0,0,0,4111179744,0.03735,0.00635,0.94556,0.94632,-0.00479,-0.00055,-0.00087,0.00489,0.95686,0.01054,0.00676,3,12126,0,6740,0.17259,0.06629,0.38412,99,1,100.397,300,1,3,4294,187491,0,0,92.578,5.743,18.952,1,228.688,9.925,27.084,1,1,2,0,7
PPG,3,102710,4109951552,128,76294,82188,82246.352,-58.352,-82.703,0,0,0,0,68.18,68.18,0,0,0,99.00,0,1,24,1,1,22,22,0,0,0,4111218885,0.03491,0.00635,0.95483,0.95549,-0.00585,-0.00055,-0.00194,0.00619,0.95549,0.00513,0.00619,3,12136,0,6740,0.17259,0.06629,0.38412,99,1,100.397,300,1,3,2595,187491,0,0,0.000,5.964,20.407,0,0.000,10.625,30.335,0,0,2,0,7
PPG,3,102711,4109991552,129,76286,82207,82245.961,-38.961,-88.742,0,0,0,0,68.18,68.18,0,0,0,99.00,0,1,24,1,1,23,23,0,0,0,4111260448,0.03564,0.00342,0.95117,0.95185,-0.00585,-0.00055,-0.00114,0.00599,0.95295,0.00744,0.00706,3,12107,0,6740,0.17259,0.06629,0.38412,99,1,100.397,300,1,3,4301,187491,0,0,0.000,5.964,20.407,0,0.000,10.625,30.335,0,0,2,0,7
PPG,3,102712,4110031552,127,76297,82201,82245.508,-44.508,-88.938,0,0,0,0,68.18,68.18,0,0,0,99.00,0,1,24,1,1,24,24,0,0,0,4111299431,0.03760,0.00684,0.95801,0.95877,-0.00532,-0.00081,-0.00114,0.00550,0.95877,0.00739,0.00589,3,12125,0,6740,0.17259,0.06629,0.38412,99,1,100.397,300,1,3,4301,187491,0,0,0.000,5.964,20.407,0,0.000,10.625,30.335,0,0,2,0,7
PPG,3,102713,4110071552,166,76303,82223,82245.281,-22.281,-83.469,0,0,0,0,68.18,68.18,0,0,0,99.00,0,1,24,1,1,25,25,0,0,0,4111338505,0.03857,0.00659,0.94849,0.94929,-0.00532,-0.00028,-0.00221,0.00576,0.95523,0.00772,0.00576,3,12164,0,6740,0.17259,0.06629,0.38412,99,1,100.397,300,1,3,2598,187491,0,0,0.000,5.964,20.407,0,0.000,10.625,30.335,0,0,2,0,7
PPG,3,102714,4110111552,131,76301,82243,82245.258,-2.258,-71.539,0,0,0,0,68.18,68.18,0,0,0,99.00,0,1,24,1,1,26,26,0,0,0,4111380126,0.04004,0.00562,0.94922,0.95008,-0.00558,-0.00081,-0.00141,0.00582,0.95362,0.00557,0.00632,3,12129,0,6740,0.17259,0.06629,0.38412,99,1,100.397,300,1,3,4297,187491,0,0,0.000,5.964,20.407,0,0.000,10.625,30.335,0,0,2,0,7
PPG,3,102715,4110151552,132,76304,82256,82245.367,10.633,-60.133,0,0,0,0,68.18,68.18,0,0,0,99.00,0,1,24,1,1,27,27,0,0,0,4111419111,0.03833,0.00659,0.95166,0.95245,-0.00558,-0.00108,-0.00167,0.00593,0.95480,0.00731,0.00593,3,12135,0,6740,0.17259,0.06629,0.38412,99,1,100.397,300,1,3,4298,187491,0,0,0.000,5.964,20.407,0,0.000,10.625,30.335,0,0,2,0,7
PPG,3,102716,4110191552,127,76307,82264,82245.555,18.445,-48.453,0,0,0,0,68.18,68.18,0,0,0,99.00,0,1,24,1,1,28,28,0,0,0,4111458117,0.04126,0.00684,0.95459,0.95551,-0.00665,-0.00055,-0.00194,0.00695,0.95551,0.00616,0.00695,3,12129,0,6740,0.17259,0.06629,0.38412,99,1,100.397,300,1,3,2599,187491,0,0,0.000,5.964,20.407,0,0.000,10.625,30.335,0,0,2,0,7
PPG,3,102717,4110231552,129,76312,82305,82246.148,58.852,-30.789,0,0,0,0,68.18,68.18,0,0,0,99.00,0,1,24,1,1,29,29,0,0,0,4111499714,0.03906,0.01147,0.95313,0.95399,-0.00558,-0.00081,-0.00141,0.00582,0.95399,0.00653,0.00604,3,12121,0,6740,0.17259,0.06629,0.38412,99,1,100.397,300,1,3,4296,187491,0,0,0.000,5.964,20.407,0,0.000,10.625,30.335,0,0,2,0,7
PPG,3,102718,4110271552,127,76307,82312,82246.805,65.195,-12.891,0,0,0,0,68.18,68.18,0,0,0,99.00,0,1,24,1,1,30,30,0,0,0,4111538694,0.03662,0.00439,0.94409,0.94481,-0.00638,-0.00135,-0.00167,0.00674,0.94862,0.00538,0.00737,3,12145,0,6740,0.17259,0.06629,0.38412,99,1,100.397,300,1,3,2636,187491,0,0,0.000,5.964,20.407,0,0.000,10.625,30.335,0,0,2,0,7
PPG,3,102719,4110311552,512,76334,82344,82247.773,96.227,9.789,0,0,0,0,68.18,68.18,0,0,0,99.00,0,1,24,1,1,31,31,0,0,0,4111580287,0.03784,0.00635,0.95337,0.95414,-0.00505,-0.00028,-0.00141,0.00525,0.95871,0.00916,0.00677,3,12116,0,6740,0.13453,0.05233,0.38895,99,1,100.276,65,1,3,4307,187491,0,0,0.000,5.964,20.407,0,0.000,10.625,30.335,0,0,2,0,7
PPG,3,102720,4110351552,176,76352,82408,82249.375,158.625,36.719,0,0,0,0,68.18,68.18,0,0,0,99.00,0,1,24,1,1,0,0,0,0,0,4111619714,0.03979,0.01099,0.94800,0.94890,-0.00505,0.00025,-0.00167,0.00533,0.95478,0.00652,0.00537,3,12121,0,6740,0.13453,0.05233,0.38895,99,1,100.276,65,1,3,4296,187491,0,0,0.000,5.964,20.407,0,0.000,10.625,30.335,0,0,2,0,7
PPG,3,102721,4110391552,128,76386,82445,82251.328,193.672,65.383,0,0,0,0,68.18,68.18,0,0,0,99.00,0,1,24,1,1,1,1,0,0,0,4111658769,0.04077,0.00732,0.94775,0.94866,-0.00558,0.00025,-0.00167,0.00583,0.95491,0.00625,0.00583,3,12125,0,6740,0.13453,0.05233,0.38895,99,1,100.276,65,1,3,2594,187491,0,0,0.000,5.964,20.407,0,0.000,10.625,30.335,0,0,2,0,7
PPG,3,102722,4110431552,128,76363,82430,82253.117,176.883,89.992,0,0,0,0,68.18,68.18,0,0,0,99.00,0,1,24,1,1,2,2,0,0,0,4111700338,0.04028,0.00610,0.95068,0.95156,-0.00479,0.00025,-0.00114,0.00493,0.95156,0.00284,0.00642,3,12113,0,6740,0.13453,0.05233,0.38895,99,1,100.276,65,1,3,4302,187491,0,0,0.000,5.964,20.407,0,0.000,10.625,30.335,0,0,2,0,7
PPG,3,102723,4110471552,129,76375,82465,82255.234,209.766,110.797,0,0,0,0,68.18,68.18,0,0,0,99.00,0,1,24,1,1,3,3,0,0,0,4111739302,0.04028,0.00562,0.94531,0.94619,-0.00558,-0.00108,-0.00221,0.00610,0.95246,0.00565,0.00631,3,12127,0,6740,0.13453,0.05233,0.38895,99,1,100.276,65,1,3,4318,187491,0,0,0.000,5.964,20.407,0,0.000,10.625,30.335,0,0,2,0,7
PPG,3,102724,4110511552,138,76371,82490,82257.578,232.422,124.883,0,0,0,0,68.18,68.18,0,0,0,99.00,0,1,24,1,1,4,4,0,0,0,4111778306,0.03687,0.00488,0.95459,0.95531,-0.00532,-0.00055,-0.00114,0.00547,0.95531,0.00794,0.00677,3,12122,0,6740,0.13453,0.05233,0.38895,99,1,100.276,65,1,3,2602,187491,0,0,0.000,5.964,20.407,0,0.000,10.625,30.335,0,0,2,0,7
PPG,3,102725,4110551552,131,76378,82493,82259.930,233.070,136.539,0,1,0,0,68.18,68.18,0,0,0,99.00,0,1,24,1,1,5,5,0,0,0,4111819884,0.04053,0.00586,0.95190,0.95278,-0.00692,-0.00055,-0.00114,0.00703,0.95278,0.00375,0.00703,3,12123,0,6740,0.13453,0.05233,0.38895,99,1,100.276,65,1,3,4296,187491,0,0,0.000,5.964,20.407,0,0.000,10.625,30.335,0,0,2,0,7
PPG,3,102726,4110591552,168,76332,82380,82261.133,118.867,132.531,0,0,0,0,68.18,68.18,0,0,0,99.00,0,1,24,1,1,6,6,0,0,0,4111858878,0.03784,0.00708,0.95068,0.95146,-0.00585,-0.00081,-0.00221,0.00631,0.95457,0.00311,0.00631,3,12147,0,6740,0.13453,0.05233,0.38895,99,1,100.276,65,1,3,2595,187491,0,0,0.000,5.964,20.407,0,0.000,10.625,30.335,0,0,2,0,7
PPG,3,102727,4110631552,129,76297,82280,82261.320,18.680,109.141,0,0,0,0,68.18,68.18,0,0,0,99.00,0,1,24,1,1,7,7,0,0,0,4111900458,0.04248,0.01001,0.94995,0.95095,-0.00558,-0.00055,-0.00274,0.00624,0.95502,0.00407,0.00624,3,12114,0,6740,0.13453,0.05233,0.38895,99,1,100.276,65,1,3,4298,187491,0,0,0.000,5.964,20.407,0,0.000,10.625,30.335,0,0,2,0,7
PPG,3,102728,4110671552,128,76301,82248,82261.188,-13.188,78.648,0,0,0,0,68.18,68.18,0,0,0,99.00,0,1,24,1,1,8,8,0,0,0,4111939431,0.04028,0.00757,0.94849,0.94937,-0.00585,-0.00055,-0.00327,0.00673,0.95032,0.00494,0.00673,3,12119,0,6740,0.13453,0.05233,0.38895,99,1,100.276,65,1,3,4301,187491,0,0,0.000,5.964,20.407,0,0.000,10.625,30.335,0,0,2,0,7
PPG,3,102729,4110711552,140,76304,82252,82261.094,-9.094,50.867,0,0,0,0,68.18,68.18,0,0,0,99.00,0,1,24,1,1,9,9,0,0,0,4111976518,0.03979,0.00830,0.94824,0.94911,-0.00612,-0.00055,-0.00247,0.00662,0.95236,0.00325,0.00662,2,22176,0,6741,0.13453,0.05233,0.38895,99,1,100.276,65,1,3,2585,187491,0,0,0.000,5.964,20.407,0,0.000,10.625,30.335,0,0,2,0,7
PPG,3,102730,4110751552,131,76302,82273,82261.211,11.789,19.188,0,0,0,0,68.18,68.18,0,0,0,99.00,0,1,24,1,1,10,10,0,0,0,4112020805,0.03540,0.00415,0.95459,0.95526,-0.00585,-0.00028,-0.00194,0.00617,0.95526,0.00626,0.00682,3,12177,0,6741,0.13453,0.05233,0.38895,99,1,100.276,65,1,3,4312,187491,0,0,0.000,5.964,20.407,0,0.000,10.625,30.335,0,0,2,0,7
PPG,3,102731,4110791552,133,76306,82269,82261.289,7.711,-15.477,0,0,0,0,68.18,68.18,0,0,0,99.00,0,1,24,1,1,11,11,0,0,0,4112059849,0.04004,0.00488,0.95044,0.95129,-0.00585,-0.00001,-0.00114,0.00596,0.95537,0.00563,0.00604,3,12138,0,6741,0.13453,0.05233,0.38895,99,1,100.276,65,1,3,4296,187491,0,0,0.000,5.964,20.407,0,0.000,10.625,30.335,0,0,2,0,7
PPG,3,102732,4110831552,130,76311,82308,82261.758,46.242,-47.258,0,0,0,0,68.18,68.18,0,0,0,99.00,0,1,24,1,1,12,12,0,0,0,4112098962,0.03540,0.00708,0.94482,0.94551,-0.00665,-0.00108,-0.00114,0.00683,0.95312,0.00761,0.00683,3,12111,0,6741,0.13453,0.05233,0.38895,99,1,100.276,65,1,3,2598,187491,0,0,0.000,5.964,20.407,0,0.000,10.625,30.335,0,0,2,0,7
PPG,3,102733,4110871552,153,76293,82278,82261.922,16.078,-64.578,1,0,1,960,63.83,63.83,0,0,0,99.00,0,1,24,1,1,13,13,0,0,0,4112140625,0.03687,0.00757,0.95117,0.95192,-0.00585,-0.00055,-0.00167,0.00611,0.95384,0.00503,0.00611,3,12130,0,6741,0.13453,0.05233,0.38895,99,1,100.276,65,1,3,4297,187491,0,0,80.836,5.964,20.407,1,225.477,10.625,30.335,1,1,2,0,7
PPG,3,102734,4110911552,135,76291,82254,82261.844,-7.844,-68.844,0,0,0,0,63.83,63.83,0,0,0,99.00,0,1,24,1,1,14,14,0,0,0,4112180020,0.03613,0.00903,0.95166,0.95239,-0.00692,-0.00028,-0.00221,0.00727,0.95239,0.00507,0.00727,3,12268,0,6741,0.13453,0.05233,0.38895,99,1,100.276,65,1,3,4330,187491,0,0,0.000,6.083,21.194,0,0.000,11.218,33.086,0,0,2,0,7
PPG,3,102735,4110951552,132,76287,82254,82261.766,-7.766,-67.891,0,0,0,0,63.83,63.83,0,0,0,99.00,0,1,24,1,1,15,15,0,0,0,4112219369,0.03760,0.00562,0.94922,0.94998,-0.00399,-0.00055,-0.00247,0.00472,0.95824,0.01344,0.00648,3,12284,0,6741,0.13453,0.05233,0.38895,99,1,100.276,65,1,3,4342,187491,0,0,0.000,6.083,21.194,0,0.000,11.218,33.086,0,0,2,0,7
PPG,3,102736,4110991552,134,76282,82280,82261.945,18.055,-64.688,0,0,0,0,63.83,63.83,0,0,0,99.00,0,1,24,1,1,16,16,0,0,0,4112258715,0.03784,0.00537,0.94531,0.94608,-0.00612,-0.00001,-0.00167,0.00634,0.95178,0.00515,0.00635,3,12310,0,6741,0.13453,0.05233,0.38895,99,1,100.276,65,1,3,2624,187491,0,0,0.000,6.083,21.194,0,0.000,11.218,33.086,0,0,2,0,7
PPG,3,102737,4111031552,148,76283,82275,82262.078,12.922,-62.898,0,0,0,0,63.83,63.83,0,0,0,99.00,0,1,24,1,1,17,17,0,0,0,4112300779,0.03906,0.00610,0.95435,0.95516,-0.00585,-0.00028,-0.00167,0.00609,0.95640,0.01031,0.00639,3,12241,0,6741,0.13453,0.05233,0.38895,99,1,100.276,65,1,3,4360,187491,0,0,0.000,6.083,21.194,0,0.000,11.218,33.086,0,0,2,0,7
PPG,3,102738,4111071552,130,76285,82297,82262.430,34.570,-58.148,0,0,0,0,63.83,63.83,0,0,0,99.00,0,1,24,1,1,18,18,0,0,0,4112340163,0.04224,0.00610,0.95264,0.95359,-0.00558,-0.00055,-0.00194,0.00594,0.95443,0.00632,0.00619,3,12238,0,6741,0.13453,0.05233,0.38895,99,1,100.276,65,1,3,4333,187491,0,0,0.000,6.083,21.194,0,0.000,11.218,33.086,0,0,2,0,7
PPG,3,102739,4111111552,131,76303,82330,82263.102,66.898,-54.312,0,0,0,0,63.83,63.83,0,0,0,99.00,0,1,24,1,1,19,19,0,0,0,4112379536,0.03735,0.00854,0.95337,0.95414,-0.00585,-0.00135,-0.00274,0.00660,0.95608,0.00361,0.00735,3,12262,0,6741,0.13453,0.05233,0.38895,99,1,100.276,65,1,3,4335,187491,0,0,0.000,6.083,21.194,0,0.000,11.218,33.086,0,0,2,0,7
PPG,3,102740,4111151552,132,76304,82346,82263.930,82.070,-41.492,0,0,0,0,63.83,63.83,0,0,0,99.00,0,1,24,1,1,20,20,0,0,0,4112418898,0.03882,0.00757,0.94824,0.94907,-0.00479,-0.00028,-0.00007,0.00479,0.95529,0.00622,0.00653,3,12274,0,6741,0.13453,0.05233,0.38895,99,1,100.276,65,1,3,2609,187491,0,0,0.000,6.083,21.194,0,0.000,11.218,33.086,0,0,2,0,7
PPG,3,102741,4111191552,139,76312,82377,82265.062,111.938,-20.523,0,0,0,0,63.83,63.83,0,0,0,99.00,0,1,24,1,1,21,21,0,0,0,4112460888,0.03638,0.00244,0.95459,0.95529,-0.00585,-0.00028,-0.00194,0.00617,0.95529,0.00402,0.00658,3,12268,0,6741,0.13453,0.05233,0.38895,99,1,100.276,65,1,3,4333,187491,0,0,0.000,6.083,21.194,0,0.000,11.218,33.086,0,0,2,0,7
PPG,3,102742,4111231552,170,76311,82406,82266.469,139.531,2.391,0,0,0,0,63.83,63.83,0,0,0,99.00,0,1,24,1,1,22,22,0,0,0,4112500268,0.03687,0.00439,0.94897,0.94970,-0.00558,0.00052,-0.00167,0.00585,0.94970,0.01315,0.00622,3,12193,0,6741,0.13453,0.05233,0.38895,99,1,100.276,65,1,3,4331,187491,0,0,0.000,6.083,21.194,0,0.000,11.218,33.086,0,0,2,0,7
PPG,3,102743,4111271552,129,76317,82416,82267.961,148.039,24.273,0,0,0,0,63.83,63.83,0,0,0,99.00,0,1,24,1,1,23,23,0,0,0,4112539590,0.03638,0.00732,0.95874,0.95946,-0.00612,-0.00001,-0.00167,0.00634,0.95946,0.00966,0.00712,3,12220,0,6741,0.13453,0.05233,0.38895,99,1,100.276,65,1,3,4337,187491,0,0,0.000,6.083,21.194,0,0.000,11.218,33.086,0,0,2,0,7
PPG,3,102744,4111311552,512,76331,82445,82269.734,175.266,50.812,0,0,0,0,63.83,63.83,0,0,0,99.00,0,1,24,1,1,24,24,0,0,0,4112578931,0.03882,0.00610,0.95605,0.95686,-0.00558,-0.00028,-0.00141,0.00577,0.95686,0.00804,0.00654,3,12243,0,6741,0.11083,0.04622,0.41699,99,1,99.575,62,1,3,2621,187491,0,0,0.000,6.083,21.194,0,0.000,11.218,33.086,0,0,2,0,7
PPG,3,102745,4111351552,179,76343,82485,82271.891,213.109,78.062,0,0,0,0,63.83,63.83,0,0,0,99.00,0,1,24,1,1,25,25,0,0,0,4112621318,0.04053,0.00415,0.95068,0.95156,-0.00585,-0.00001,-0.00114,0.00596,0.95156,0.00578,0.00690,3,12231,0,6741,0.11083,0.04622,0.41699,99,1,99.575,62,1,3,4333,187491,0,0,0.000,6.083,21.194,0,0.000,11.218,33.086,0,0,2,0,7
PPG,3,102746,4111391552,128,76347,82503,82274.203,228.797,96.633,0,0,0,0,63.83,63.83,0,0,0,99.00,0,1,24,1,1,26,26,0,0,0,4112660694,0.03955,0.00781,0.95117,0.95203,-0.00638,-0.00028,-0.00247,0.00685,0.95203,0.00490,0.00693,3,12243,0,6741,0.11083,0.04622,0.41699,99,1,99.575,62,1,3,4332,187491,0,0,0.000,6.083,21.194,0,0.000,11.218,33.086,0,0,2,0,7
PPG,3,102747,4111431552,140,76371,82533,82276.789,256.211,110.688,0,1,0,0,63.83,63.83,0,0,0,99.00,0,1,24,1,1,27,27,0,0,0,4112700016,0.04199,0.00415,0.94727,0.94820,-0.00585,-0.00135,-0.00247,0.00649,0.95516,0.00695,0.00687,3,12238,0,6741,0.11083,0.04622,0.41699,99,1,99.575,62,1,3,4331,187491,0,0,0.000,6.083,21.194,0,0.000,11.218,33.086,0,0,2,0,7
PPG,3,102748,4111471552,137,76360,82561,82279.633,281.367,121.328,0,0,0,0,63.83,63.83,0,0,0,99.00,0,1,24,1,1,28,28,0,0,0,4112739373,0.03711,0.00439,0.95142,0.95215,-0.00585,-0.00055,-0.00141,0.00604,0.95380,0.00559,0.00604,3,12257,0,6741,0.11083,0.04622,0.41699,99,1,99.575,62,1,3,2617,187491,0,0,0.000,6.083,21.194,0,0.000,11.218,33.086,0,0,2,0,7
PPG,3,102749,4111511552,207,76328,82449,82281.328,167.672,117.617,0,0,0,0,63.83,63.83,0,0,0,99.00,0,1,24,1,1,29,29,0,0,0,4112781326,0.04028,0.00366,0.94629,0.94715,-0.00532,-0.00001,-0.00194,0.00566,0.95383,0.00450,0.00576,3,12185,0,6741,0.11083,0.04622,0.41699,99,1,99.575,62,1,3,4307,187491,0,0,0.000,6.083,21.194,0,0.000,11.218,33.086,0,0,2,0,7
PPG,3,102750,4111551552,152,76279,82348,82281.992,66.008,104.156,0,0,0,0,63.83,63.83,0,0,0,99.00,0,1,24,1,1,30,30,0,0,0,4112820624,0.03711,0.00708,0.95410,0.95485,-0.00585,0.00079,-0.00167,0.00614,0.95485,0.00311,0.00614,3,12128,0,6741,0.11083,0.04622,0.41699,99,1,99.575,62,1,3,4296,187491,0,0,0.000,6.083,21.194,0,0.000,11.218,33.086,0,0,2,0,7
PPG,3,102751,4111591552,129,76283,82325,82282.422,42.578,84.211,0,0,0,0,63.83,63.83,0,0,0,99.00,0,1,24,1,1,31,31,0,0,0,4112859627,0.03613,0.00806,0.95117,0.95189,-0.00665,0.00052,-0.00221,0.00703,0.95438,0.00601,0.00703,3,12118,0,6741,0.11083,0.04622,0.41699,99,1,99.575,62,1,3,4296,187491,0,0,0.000,6.083,21.194,0,0.000,11.218,33.086,0,0,2,0,7
PPG,3,102752,4111631552,128,76280,82318,82282.781,35.219,59.859,0,0,0,0,63.83,63.83,0,0,0,99.00,0,1,24,1,1,0,0,0,0,0,4112898664,0.03931,0.00659,0.94873,0.94957,-0.00558,-0.00028,-0.00114,0.00571,0.95173,0.00217,0.00615,3,12125,0,6741,0.11083,0.04622,0.41699,99,1,99.575,62,1,3,2604,187491,0,0,0.000,6.083,21.194,0,0.000,11.218,33.086,0,0,2,0,7
PPG,3,102753,4111671552,129,76252,82301,82282.961,18.039,29.852,0,0,0,0,63.83,63.83,0,0,0,99.00,0,1,24,1,1,1,1,0,0,0,4112940226,0.03735,0.00610,0.95776,0.95851,-0.00612,-0.00028,-0.00194,0.00642,0.95851,0.00821,0.00685,3,12119,0,6741,0.11083,0.04622,0.41699,99,1,99.575,62,1,3,4306,187491,0,0,0.000,6.083,21.194,0,0.000,11.218,33.086,0,0,2,0,7
PPG,3,102754,4111711552,136,76247,82304,82283.172,20.828,-5.359,0,0,0,0,63.83,63.83,0,0,0,99.00,0,1,24,1,1,2,2,0,0,0,4112976492,0.03784,0.00854,0.95020,0.95099,-0.00612,-0.00055,-0.00141,0.00630,0.95202,0.00649,0.00630,2,21602,0,6742,0.11083,0.04622,0.41699,99,1,99.575,62,1,3,2602,187491,0,0,0.000,6.083,21.194,0,0.000,11.218,33.086,0,0,2,0,7
PPG,3,102755,4111751552,131,76271,82347,82283.812,63.188,-40.586,0,0,0,0,63.83,63.83,0,0,0,99.00,0,1,24,1,1,3,3,0,0,0,4113020803,0.03564,0.00317,0.95557,0.95624,-0.00532,-0.00055,-0.00194,0.00569,0.95624,0.00410,0.00682,3,12123,0,6743,0.11083,0.04622,0.41699,99,1,99.575,62,1,3,4306,187491,0,0,0.000,6.083,21.194,0,0.000,11.218,33.086,0,0,2,0,7
PPG,3,102756,4111791552,131,76264,82321,82284.188,36.812,-60.922,1,0,0,0,63.83,63.83,0,0,0,99.00,0,1,24,1,1,4,4,0,0,0,4113059875,0.03955,0.00513,0.95313,0.95396,-0.00638,-0.00001,-0.00194,0.00667,0.95396,0.00464,0.00667,3,12136,0,6743,0.11083,0.04622,0.41699,99,1,99.575,62,1,3,4301,187491,0,0,0.000,6.083,21.194,0,190.172,11.218,33.086,1,0,2,0,7
PPG,3,102757,4111831552,150,76271,82299,82284.336,14.664,-69.117,0,0,1,940,63.83,63.83,0,0,0,99.00,0,1,24,1,1,5,5,0,0,0,4113098978,0.03613,0.00415,0.95459,0.95528,-0.00558,-0.00055,0.00019,0.00561,0.95743,0.01006,0.00630,3,12117,0,6743,0.11083,0.04622,0.41699,99,1,99.575,62,1,3,2602,187491,0,0,60.438,6.083,21.194,1,0.000,11.218,33.086,0,1,2,0,7
PPG,3,102758,4111871552,129,76275,82320,82284.695,35.305,-70.992,0,0,0,0,63.83,63.83,0,0,0,99.00,0,1,24,1,1,6,6,0,0,0,4113140629,0.04102,0.00439,0.94922,0.95011,-0.00452,-0.00055,-0.00167,0.00485,0.95510,0.00892,0.00744,3,12113,0,6743,0.11083,0.04622,0.41699,99,1,99.575,62,1,3,4296,187491,0,0,0.000,6.060,21.041,0,0.000,11.516,34.469,0,0,2,0,7
PPG,3,102759,4111911552,129,76284,82334,82285.188,48.812,-68.898,0,0,0,0,63.83,63.83,0,0,0,99.00,0,1,24,1,1,7,7,0,0,0,4113179626,0.04053,0.00610,0.95483,0.95571,-0.00558,-0.00108,-0.00194,0.00601,0.95635,0.00624,0.00670,3,12151,0,6743,0.11083,0.04622,0.41699,99,1,99.575,62,1,3,2595,187491,0,0,0.000,6.060,21.041,0,0.000,11.516,34.469,0,0,2,0,7
PPG,3,102760,4111951552,130,76291,82372,82286.055,85.945,-60.062,0,0,0,0,63.83,63.83,0,0,0,99.00,0,1,24,1,1,8,8,0,0,0,4113221277,0.03223,0.00610,0.95337,0.95393,-0.00665,-0.00001,-0.00167,0.00686,0.95590,0.00598,0.00686,3,12124,0,6743,0.11083,0.04622,0.41699,99,1,99.575,62,1,3,4304,187491,0,0,0.000,6.060,21.041,0,0.000,11.516,34.469,0,0,2,0,7
PPG,3,102761,4111991552,130,76295,82397,82287.164,109.836,-47.773,0,0,0,0,63.83,63.83,0,0,0,99.00,0,1,24,1,1,9,9,0,0,0,4113260291,0.03687,0.00342,0.95435,0.95506,-0.00612,0.00025,-0.00114,0.00623,0.95506,0.00288,0.00696,3,12124,0,6743,0.11083,0.04622,0.41699,99,1,99.575,62,1,3,4320,187491,0,0,0.000,6.060,21.041,0,0.000,11.516,34.469,0,0,2,0,7
PPG,3,102762,4112031552,128,76298,82425,82288.539,136.461,-37.578,0,0,0,0,63.83,63.83,0,0,0,99.00,0,1,24,1,1,10,10,0,0,0,4113299522,0.03882,0.00220,0.95703,0.95782,-0.00692,-0.00055,-0.00141,0.00708,0.95782,0.01385,0.00721,3,12305,0,6743,0.11083,0.04622,0.41699,99,1,99.575,62,1,3,2651,187491,0,0,0.000,6.060,21.041,0,0.000,11.516,34.469,0,0,2,0,7
PPG,3,102763,4112071552,130,76311,82444,82290.094,153.906,-21.406,0,0,0,0,63.83,63.83,0,0,0,99.00,0,1,24,1,1,11,11,0,0,0,4113341279,0.03516,0.00659,0.95557,0.95624,-0.00612,-0.00028,-0.00141,0.00628,0.95624,0.00347,0.00726,3,12201,0,6743,0.11083,0.04622,0.41699,99,1,99.575,62,1,3,4304,187491,0,0,0.000,6.060,21.041,0,0.000,11.516,34.469,0,0,2,0,7
PPG,3,102764,4112111552,208,76322,82458,82291.773,166.227,0.656,0,0,0,0,63.83,63.83,0,0,0,99.00,0,1,24,1,1,12,12,0,0,0,4113380251,0.03760,0.00513,0.95068,0.95144,-0.00665,-0.00055,-0.00114,0.00677,0.95144,0.00622,0.00677,3,12135,0,6743,0.11083,0.04622,0.41699,99,1,99.575,62,1,3,4325,187491,0,0,0.000,6.060,21.041,0,0.000,11.516,34.469,0,0,2,0,7
PPG,3,102765,4112151552,130,76326,82472,82293.578,178.422,23.023,0,0,0,0,63.83,63.83,0,0,0,99.00,0,1,24,1,1,13,13,0,0,0,4113419354,0.04248,0.00513,0.95215,0.95311,-0.00585,0.00052,-0.00114,0.00598,0.95311,0.00143,0.00720,3,12113,0,6743,0.11083,0.04622,0.41699,99,1,99.575,62,1,3,2601,187491,0,0,0.000,6.060,21.041,0,0.000,11.516,34.469,0,0,2,0,7
PPG,3,102766,4112191552,129,76302,82482,82295.461,186.539,45.211,0,0,0,0,63.83,63.83,0,0,0,99.00,0,1,24,1,1,14,14,0,0,0,4113460900,0.03784,0.00415,0.95117,0.95193,-0.00532,-0.00108,-0.00167,0.00568,0.95568,0.00515,0.00591,3,12121,0,6743,0.11083,0.04622,0.41699,99,1,99.575,62,1,3,4298,187491,0,0,0.000,6.060,21.041,0,0.000,11.516,34.469,0,0,2,0,7
PPG,3,102767,4112231552,130,76309,82509,82297.594,211.406,65.992,0,0,0,0,63.83,63.83,0,0,0,99.00,0,1,24,1,1,15,15,0,0,0,4113499880,0.04077,0.00488,0.94873,0.94962,-0.00612,-0.00108,-0.00141,0.00637,0.94962,0.00608,0.00694,3,12134,0,6743,0.11083,0.04622,0.41699,99,1,99.575,62,1,3,4299,187491,0,0,0.000,6.060,21.041,0,0.000,11.516,34.469,0,0,2,0,7
PPG,3,102768,4112271552,129,76322,82528,82299.898,228.102,86.352,0,0,0,0,63.83,63.83,0,0,0,99.00,0,1,24,1,1,16,16,0,0,0,4113538828,0.04248,0.00537,0.95361,0.95457,-0.00665,-0.00028,-0.00221,0.00701,0.95457,0.00715,0.00701,3,12117,0,6743,0.11083,0.04622,0.41699,99,1,99.575,62,1,3,2599,187491,0,0,0.000,6.060,21.041,0,0.000,11.516,34.469,0,0,2,0,7
PPG,3,102769,4112311552,520,76328,82557,82302.469,254.531,99.812,0,1,0,0,63.83,63.83,0,0,0,99.00,0,1,24,1,1,17,17,0,0,0,4113580387,0.03613,0.00635,0.95264,0.95334,-0.00638,-0.00028,-0.00114,0.00649,0.95537,0.00972,0.00649,3,12115,0,6743,0.13131,0.04741,0.36104,99,1,100.974,88,1,3,4297,187491,0,0,0.000,6.060,21.041,0,0.000,11.516,34.469,0,0,2,0,7
PPG,3,102770,4112351552,179,76340,82562,82305.062,256.938,105.961,0,0,0,0,63.83,63.83,0,0,0,99.00,0,1,24,1,1,18,18,0,0,0,4113619849,0.04150,0.00928,0.94727,0.94822,-0.00585,-0.00028,-0.00087,0.00592,0.95829,0.00820,0.00647,3,12111,0,6743,0.13131,0.04741,0.36104,99,1,100.974,88,1,3,4297,187491,0,0,0.000,6.060,21.041,0,0.000,11.516,34.469,0,0,2,0,7
PPG,3,102771,4112391552,155,76339,82562,82307.633,254.367,108.969,0,0,0,0,63.83,63.83,0,0,0,99.00,0,1,24,1,1,19,19,0,0,0,4113658940,0.04004,0.00854,0.95337,0.95425,-0.00532,-0.00135,-0.00061,0.00552,0.95494,0.00905,0.00619,3,12113,0,6743,0.13131,0.04741,0.36104,99,1,100.974,88,1,3,2595,187491,0,0,0.000,6.060,21.041,0,0.000,11.516,34.469,0,0,2,0,7
PPG,3,102772,4112431552,154,76289,82428,82308.836,119.164,97.188,0,0,0,0,63.83,63.83,0,0,0,99.00,0,1,24,1,1,20,20,0,0,0,4113700535,0.04004,0.00806,0.95117,0.95205,-0.00585,-0.00055,-0.00034,0.00589,0.95334,0.00090,0.00654,3,12134,0,6743,0.13131,0.04741,0.36104,99,1,100.974,88,1,3,4294,187491,0,0,0.000,6.060,21.041,0,0.000,11.516,34.469,0,0,2,0,7
PPG,3,102773,4112471552,131,76255,82355,82309.297,45.703,76.344,0,0,0,0,63.83,63.83,0,0,0,99.00,0,1,24,1,1,21,21,0,0,0,4113739560,0.03735,0.00342,0.95508,0.95581,-0.00532,-0.00028,-0.00061,0.00536,0.95581,0.00485,0.00550,3,12112,0,6743,0.13131,0.04741,0.36104,99,1,100.974,88,1,3,2600,187491,0,0,0.000,6.060,21.041,0,0.000,11.516,34.469,0,0,2,0,7
PPG,3,102774,4112511552,130,76251,82312,82309.320,2.680,47.797,0,0,0,0,63.83,63.83,0,0,0,99.00,0,1,24,1,1,22,22,0,0,0,4113781116,0.03516,0.00586,0.94946,0.95013,-0.00638,-0.00055,-0.00221,0.00678,0.95370,0.00501,0.00687,3,12119,0,6743,0.13131,0.04741,0.36104,99,1,100.974,88,1,3,4300,187491,0,0,0.000,6.060,21.041,0,0.000,11.516,34.469,0,0,2,0,7
PPG,3,102775,4112551552,133,76245,82316,82309.391,6.609,19.062,0,0,0,0,63.83,63.83,0,0,0,99.00,0,1,24,1,1,23,23,0,0,0,4113820097,0.03662,0.00659,0.95288,0.95361,-0.00612,-0.00001,-0.00194,0.00642,0.95361,0.00747,0.00642,3,12121,0,6743,0.13131,0.04741,0.36104,99,1,100.974,88,1,3,4298,187491,0,0,0.000,6.060,21.041,0,0.000,11.516,34.469,0,0,2,0,7
PPG,3,102776,4112591552,129,76248,82324,82309.539,14.461,-14.367,0,0,0,0,63.83,63.83,0,0,0,99.00,0,1,24,1,1,24,24,0,0,0,4113859097,0.04053,0.00415,0.94653,0.94741,-0.00558,-0.00108,-0.00221,0.00610,0.95360,0.00790,0.00622,3,12122,0,6743,0.13131,0.04741,0.36104,99,1,100.974,88,1,3,2598,187491,0,0,0.000,6.060,21.041,0,0.000,11.516,34.469,0,0,2,0,7
PPG,3,102777,4112631552,129,76260,82357,82310.016,46.984,-46.562,0,0,0,0,63.83,63.83,0,0,0,99.00,0,1,24,1,1,25,25,0,0,0,4113900685,0.03784,0.00415,0.95068,0.95145,-0.00532,-0.00135,-0.00247,0.00602,0.95735,0.00994,0.00656,3,12158,0,6743,0.13131,0.04741,0.36104,99,1,100.974,88,1,3,4307,187491,0,0,0.000,6.060,21.041,0,0.000,11.516,34.469,0,0,2,0,7
PPG,3,102778,4112671552,129,76275,82378,82310.695,67.305,-75.742,0,0,0,0,63.83,63.83,0,0,0,99.00,0,1,24,1,1,26,26,0,0,0,4113939714,0.03711,0.00562,0.95361,0.95435,-0.00638,-0.00081,-0.00087,0.00649,0.95435,0.00231,0.00649,3,12113,0,6743,0.13131,0.04741,0.36104,99,1,100.974,88,1,3,2601,187491,0,0,64.484,6.060,21.041,1,0.000,11.516,34.469,0,0,2,0,7
PPG,3,102779,4112711552,163,76254,82376,82311.352,64.648,-85.273,1,0,1,880,63.83,63.83,0,0,0,99.00,0,1,24,1,1,27,27,0,0,0,4113975865,0.03882,0.00781,0.95166,0.95248,-0.00532,-0.00108,-0.00247,0.00596,0.95391,0.00143,0.00728,2,18864,0,6743,0.13131,0.04741,0.36104,99,1,100.974,88,1,3,2588,187491,0,0,0.000,6.060,21.041,0,179.961,11.516,34.469,1,1,2,0,8
PPG,3,102780,4112751552,132,76262,82367,82311.906,55.094,-83.312,0,0,0,0,63.83,63.83,0,0,0,99.00,0,1,24,1,1,28,28,0,0,0,4114020333,0.03979,0.00513,0.94678,0.94763,-0.00612,-0.00055,-0.00034,0.00615,0.95791,0.00568,0.00646,3,12185,0,6744,0.13131,0.04741,0.36104,99,1,100.974,88,1,3,4305,187491,0,0,0.000,6.065,21.074,0,0.000,11.713,35.383,0,0,2,0,8
PPG,3,102781,4112791552,135,76286,82382,82312.609,69.391,-72.562,0,0,0,0,63.83,63.83,0,0,0,99.00,0,1,24,1,1,29,29,0,0,0,4114059509,0.03784,0.00464,0.94873,0.94950,-0.00612,-0.00108,-0.00167,0.00643,0.95462,0.00548,0.00643,3,12257,0,6744,0.13131,0.04741,0.36104,99,1,100.974,88,1,3,2599,187491,0,0,0.000,6.065,21.074,0,0.000,11.713,35.383,0,0,2,0,8
PPG,3,102782,4112831552,129,76284,82418,82313.664,104.336,-57.641,0,0,0,0,63.83,63.83,0,0,0,99.00,0,1,24,1,1,30,30,0,0,0,4114101431,0.03955,0.00586,0.94653,0.94738,-0.00505,-0.00001,-0.00141,0.00524,0.95423,0.00685,0.00611,3,12238,0,6744,0.13131,0.04741,0.36104,99,1,100.974,88,1,3,4362,187491,0,0,0.000,6.065,21.074,0,0.000,11.713,35.383,0,0,2,0,8
PPG,3,102783,4112871552,137,76292,82442,82314.945,127.055,-40.680,0,0,0,0,63.83,63.83,0,0,0,99.00,0,1,24,1,1,31,31,0,0,0,4114140810,0.03906,0.00732,0.94775,0.94859,-0.00665,-0.00028,-0.00141,0.00680,0.95200,0.00462,0.00680,3,12273,0,6744,0.13131,0.04741,0.36104,99,1,100.974,88,1,3,4362,187491,0,0,0.000,6.065,21.074,0,0.000,11.713,35.383,0,0,2,0,8
PPG,3,102784,4112911552,129,76296,82449,82316.289,132.711,-27.086,0,0,0,0,63.83,63.83,0,0,0,99.00,0,1,24,1,1,0,0,0,0,0,4114180148,0.03784,0.00024,0.95435,0.95510,-0.00612,0.00025,-0.00167,0.00635,0.95510,0.00429,0.00655,3,12221,0,6744,0.13131,0.04741,0.36104,99,1,100.974,88,1,3,4345,187491,0,0,0.000,6.065,21.074,0,0.000,11.713,35.383,0,0,2,0,8
PPG,3,102785,4112951552,135,76306,82479,82317.914,161.086,-13.008,0,0,0,0,63.83,63.83,0,0,0,99.00,0,1,24,1,1,1,1,0,0,0,4114219501,0.03906,0.00513,0.94922,0.95004,-0.00532,-0.00055,-0.00194,0.00569,0.95612,0.00609,0.00649,3,12252,0,6744,0.13131,0.04741,0.36104,99,1,100.974,88,1,3,2626,187491,0,0,0.000,6.065,21.074,0,0.000,11.713,35.383,0,0,2,0,8
PPG,3,102786,4112991552,129,76302,82490,82319.633,170.367,2.883,0,0,0,0,63.83,63.83,0,0,0,99.00,0,1,24,1,1,2,2,0,0,0,4114261464,0.03735,0.01196,0.95264,0.95344,-0.00612,-0.00081,-0.00007,0.00617,0.95613,0.00399,0.00666,3,12231,0,6744,0.13131,0.04741,0.36104,99,1,100.974,88,1,3,4315,187491,0,0,0.000,6.065,21.074,0,0.000,11.713,35.383,0,0,2,0,8
PPG,3,102787,4113031552,135,76320,82517,82321.609,195.391,23.906,0,0,0,0,63.83,63.83,0,0,0,99.00,0,1,24,1,1,3,3,0,0,0,4114300789,0.03906,0.00464,0.95142,0.95223,-0.00558,-0.00028,-0.00141,0.00577,0.95612,0.00390,0.00698,3,12272,0,6744,0.13131,0.04741,0.36104,99,1,100.974,88,1,3,4374,187491,0,0,0.000,6.065,21.074,0,0.000,11.713,35.383,0,0,2,0,8
PPG,3,102788,4113071552,136,76313,82518,82323.570,194.430,43.836,0,0,0,0,63.83,63.83,0,0,0,99.00,0,1,24,1,1,4,4,0,0,0,4114340162,0.03760,0.01050,0.95215,0.95295,-0.00585,-0.00081,-0.00274,0.00651,0.95692,0.00854,0.00675,3,12224,0,6744,0.13131,0.04741,0.36104,99,1,100.974,88,1,3,4321,187491,0,0,0.000,6.065,21.074,0,0.000,11.713,35.383,0,0,2,0,8
PPG,3,102789,4113111552,142,76317,82533,82325.664,207.336,61.461,0,0,0,0,63.83,63.83,0,0,0,99.00,0,1,24,1,1,5,5,0,0,0,4114379516,0.03784,0.00171,0.95874,0.95949,-0.00585,-0.00108,-0.00194,0.00626,0.95949,0.00488,0.00728,3,12267,0,6744,0.13131,0.04741,0.36104,99,1,100.974,88,1,3,2633,187491,0,0,0.000,6.065,21.074,0,0.000,11.713,35.383,0,0,2,0,8
PPG,3,102790,4113151552,129,76350,82554,82327.945,226.055,77.859,0,0,0,0,63.83,63.83,0,0,0,99.00,0,1,24,1,1,6,6,0,0,0,4114421524,0.03540,0.00903,0.94556,0.94626,-0.00532,-0.00055,-0.00114,0.00547,0.95123,0.00826,0.00702,3,12248,0,6744,0.13131,0.04741,0.36104,99,1,100.974,88,1,3,4313,187491,0,0,0.000,6.065,21.074,0,0.000,11.713,35.383,0,0,2,0,8
PPG,3,102791,4113191552,132,76330,82556,82330.227,225.773,93.453,0,0,0,0,63.83,63.83,0,0,0,99.00,0,1,24,1,1,7,7,0,0,0,4114460805,0.04224,0.00610,0.95435,0.95530,-0.00612,0.00052,-0.00221,0.00652,0.95868,0.01242,0.00668,3,12246,0,6744,0.13131,0.04741,0.36104,99,1,100.974,88,1,3,4342,187491,0,0,0.000,6.065,21.074,0,0.000,11.713,35.383,0,0,2,0,8
PPG,3,102792,4113231552,139,76330,82568,82332.602,235.398,99.164,0,1,0,0,63.83,63.83,0,0,0,99.00,0,1,24,1,1,8,8,0,0,0,4114500080,0.03711,0.00317,0.95215,0.95288,-0.00532,-0.00055,-0.00167,0.00560,0.95446,0.00130,0.00665,3,12233,0,6744,0.13131,0.04741,0.36104,99,1,100.974,88,1,3,4336,187491,0,0,0.000,6.065,21.074,0,0.000,11.713,35.383,0,0,2,0,8
PPG,3,102793,4113271552,183,76313,82517,82334.445,182.555,94.922,0,0,0,0,63.83,63.83,0,0,0,99.00,0,1,24,1,1,9,9,0,0,0,4114539562,0.03467,0.00757,0.95239,0.95305,-0.00558,-0.00055,-0.00061,0.00564,0.95305,0.00294,0.00603,3,12243,0,6744,0.13131,0.04741,0.36104,99,1,100.974,88,1,3,2638,187491,0,0,0.000,6.065,21.074,0,0.000,11.713,35.383,0,0,2,0,8
PPG,3,102794,4113311552,527,76281,82400,82335.102,64.898,73.812,0,0,0,0,63.83,63.83,0,0,0,99.00,0,1,24,1,1,10,10,0,0,0,4114581512,0.03564,0.00122,0.95459,0.95526,-0.00638,-0.00055,-0.00247,0.00687,0.95526,0.00496,0.00687,3,12245,0,6744,0.12691,0.04475,0.35264,100,1,101.184,115,1,3,4334,187491,0,0,0.000,6.065,21.074,0,0.000,11.713,35.383,0,0,2,0,8
PPG,3,102795,4113351552,182,76254,82353,82335.281,17.719,48.391,0,0,0,0,63.83,63.83,0,0,0,99.00,0,1,24,1,1,11,11,0,0,0,4114621333,0.04077,0.00732,0.95459,0.95549,-0.00665,-0.00055,-0.00247,0.00712,0.95549,0.00780,0.00712,3,12267,0,6744,0.12691,0.04475,0.35264,100,1,101.184,115,1,3,4334,187491,0,0,0.000,6.065,21.074,0,0.000,11.713,35.383,0,0,2,0,8
PPG,3,102796,4113391552,129,76268,82365,82335.578,29.422,22.336,0,0,0,0,63.83,63.83,0,0,0,99.00,0,1,24,1,1,12,12,0,0,0,4114660674,0.03638,0.00439,0.95093,0.95163,-0.00745,-0.00081,-0.00167,0.00768,0.95178,0.00458,0.00768,3,12248,0,6744,0.12691,0.04475,0.35264,100,1,101.184,115,1,3,4330,187491,0,0,0.000,6.065,21.074,0,0.000,11.713,35.383,0,0,2,0,8
PPG,3,102797,4113431552,130,76272,82391,82336.133,54.867,-2.648,0,0,0,0,63.83,63.83,0,0,0,99.00,0,1,24,1,1,13,13,0,0,0,4114699974,0.03809,0.00879,0.94336,0.94417,-0.00558,-0.00081,-0.00300,0.00639,0.95755,0.01339,0.00647,3,12293,0,6744,0.12691,0.04475,0.35264,100,1,101.184,115,1,3,2595,187491,0,0,0.000,6.065,21.074,0,0.000,11.713,35.383,0,0,2,0,8
PPG,3,102798,4113471552,129,76277,82409,82336.859,72.141,-25.203,0,0,0,0,63.83,63.83,0,0,0,99.00,0,1,24,1,1,14,14,0,0,0,4114741840,0.03516,0.00269,0.95190,0.95256,-0.00585,-0.00108,-0.00167,0.00618,0.95377,0.00960,0.00651,3,12300,0,6744,0.12691,0.04475,0.35264,100,1,101.184,115,1,3,4304,187491,0,0,0.000,6.065,21.074,0,0.000,11.713,35.383,0,0,2,0,8
PPG,3,102799,4113511552,130,76299,82439,82337.883,101.117,-46.781,0,0,0,0,63.83,63.83,0,0,0,99.00,0,1,24,1,1,15,15,0,0,0,4114780847,0.03638,0.00415,0.94849,0.94919,-0.00532,-0.00108,-0.00194,0.00576,0.96162,0.00969,0.00635,3,12125,0,6744,0.12691,0.04475,0.35264,100,1,101.184,115,1,3,4299,187491,0,0,0.000,6.065,21.074,0,0.000,11.713,35.383,0,0,2,0,8
PPG,3,102800,4113551552,148,76297,82427,82338.773,88.227,-62.641,1,0,1,860,68.18,68.18,0,0,0,99.00,0,1,24,1,1,16,16,0,0,0,4114819852,0.03955,0.00488,0.95020,0.95103,-0.00532,-0.00161,-0.00274,0.00620,0.95593,0.00674,0.00677,3,12160,0,6744,0.12691,0.04475,0.35264,100,1,101.184,115,1,3,2595,187491,0,0,71.914,6.065,21.074,1,184.438,11.713,35.383,1,1,2,0,8
PPG,3,102801,4113591552,131,76287,82420,82339.586,80.414,-61.680,0,0,0,0,68.18,68.18,0,0,0,99.00,0,1,24,1,1,17,17,0,0,0,4114861606,0.04053,0.00903,0.95483,0.95574,-0.00638,-0.00055,-0.00141,0.00656,0.95574,0.00793,0.00656,3,12131,0,6744,0.12691,0.04475,0.35264,100,1,101.184,115,1,3,4295,187491,0,0,0.000,6.115,21.410,0,0.000,11.913,36.312,0,0,2,0,8
PPG,3,102802,4113631552,128,76303,82444,82340.633,103.367,-49.977,0,0,0,0,68.18,68.18,0,0,0,99.00,0,1,24,1,1,18,18,0,0,0,4114900607,0.03564,0.00537,0.94800,0.94868,-0.00479,0.00025,-0.00114,0.00493,0.95017,0.00972,0.00643,3,12129,0,6744,0.12691,0.04475,0.35264,100,1,101.184,115,1,3,4293,187491,0,0,0.000,6.115,21.410,0,0.000,11.913,36.312,0,0,2,0,8
PPG,3,102803,4113671552,130,76330,82482,82342.047,139.953,-35.258,0,0,0,0,68.18,68.18,0,0,0,99.00,0,1,24,1,1,19,19,0,0,0,4114939629,0.03638,0.00195,0.94800,0.94870,-0.00558,-0.00028,-0.00114,0.00571,0.95168,0.00307,0.00661,3,12113,0,6744,0.12691,0.04475,0.35264,100,1,101.184,115,1,3,2594,187491,0,0,0.000,6.115,21.410,0,0.000,11.913,36.312,0,0,2,0,8
PPG,3,102804,4113711552,148,76337,82510,82343.727,166.273,-21.312,0,0,0,0,68.18,68.18,0,0,0,99.00,0,1,24,2,2,21,21,0,0,0,4115033891,0.03833,0.01245,0.95288,0.95373,-0.00612,-0.00001,-0.00061,0.00615,0.95787,0.00663,0.00637,3,58095,0,6748,0.12691,0.04475,0.35264,100,1,101.184,115,1,3,58042,187491,0,0,0.000,6.115,21.410,0,0.000,11.913,36.312,0,0,2,0,8
PPG,3,102805,4113751552,42,76327,82504,82345.328,158.672,-8.992,0,0,0,0,68.18,68.18,0,0,0,99.00,0,1,24,2,2,21,21,0,0,0,4115033891,0.03833,0.01245,0.95288,0.95373,-0.00612,-0.00001,-0.00061,0.00615,0.00000,0.00000,0.00000,0,58095,0,6748,0.12691,0.04475,0.35264,100,1,101.184,115,1,3,58042,187491,0,0,0.000,6.115,21.410,0,0.000,11.913,36.312,0,0,2,0,8
PPG,3,102806,4113791552,131,76330,82539,82347.266,191.734,2.844,0,0,0,0,68.18,68.18,0,0,0,99.00,0,1,24,1,1,22,22,0,0,0,4115060007,0.03442,0.00635,0.94824,0.94889,-0.00638,-0.00081,-0.00087,0.00649,0.95815,0.00926,0.00649,2,12575,0,6748,0.12691,0.04475,0.35264,100,1,101.184,115,1,3,2595,187491,0,0,0.000,6.115,21.410,0,0.000,11.913,36.312,0,0,2,0,8
PPG,3,102807,4113831552,127,76330,82555,82349.344,205.656,19.227,0,0,0,0,68.18,68.18,0,0,0,99.00,0,1,24,1,1,23,23,0,0,0,4115101604,0.04175,0.00610,0.95288,0.95381,-0.00558,-0.00135,-0.00087,0.00581,0.95381,0.00230,0.00659,3,12136,0,6748,0.12691,0.04475,0.35264,100,1,101.184,115,1,3,4297,187491,0,0,0.000,6.115,21.410,0,0.000,11.913,36.312,0,0,2,0,8
PPG,3,102808,4113871552,129,76344,82563,82351.477,211.523,37.406,0,0,0,0,68.18,68.18,0,0,0,99.00,0,1,24,1,1,24,24,0,0,0,4115140630,0.03564,0.00708,0.95068,0.95138,-0.00479,-0.00081,-0.00114,0.00499,0.95469,0.00331,0.00556,3,12128,0,6748,0.12691,0.04475,0.35264,100,1,101.184,115,1,3,4296,187491,0,0,0.000,6.115,21.410,0,0.000,11.913,36.312,0,0,2,0,8
PPG,3,102809,4113911552,127,76319,82563,82353.594,209.406,52.906,0,0,0,0,68.18,68.18,0,0,0,99.00,0,1,24,1,1,25,25,0,0,0,4115179599,0.03418,0.00488,0.94897,0.94960,-0.00585,-0.00028,-0.00167,0.00609,0.95398,0.00438,0.00653,3,12124,0,6748,0.12691,0.04475,0.35264,100,1,101.184,115,1,3,2597,187491,0,0,0.000,6.115,21.410,0,0.000,11.913,36.312,0,0,2,0,8
PPG,3,102810,4113951552,129,76346,82592,82355.977,236.023,66.719,0,0,0,0,68.18,68.18,0,0,0,99.00,0,1,24,1,1,26,26,0,0,0,4115221138,0.03833,0.00806,0.94775,0.94856,-0.00612,-0.00081,-0.00114,0.00628,0.96009,0.01244,0.00703,3,12122,0,6748,0.12691,0.04475,0.35264,100,1,101.184,115,1,3,4316,187491,0,0,0.000,6.115,21.410,0,0.000,11.913,36.312,0,0,2,0,8
PPG,3,102811,4113991552,127,76344,82588,82358.297,229.703,76.258,0,0,0,0,68.18,68.18,0,0,0,99.00,0,1,24,1,1,27,27,0,0,0,4115260161,0.03418,0.01001,0.94434,0.94501,-0.00558,-0.00055,-0.00114,0.00573,0.95054,0.00416,0.00642,3,12124,0,6748,0.12691,0.04475,0.35264,100,1,101.184,115,1,3,2605,187491,0,0,0.000,6.115,21.410,0,0.000,11.913,36.312,0,0,2,0,8
PPG,3,102812,4114031552,129,76340,82604,82360.750,243.250,88.750,0,0,0,0,68.18,68.18,0,0,0,99.00,0,1,24,1,1,28,28,0,0,0,4115301743,0.03955,0.00903,0.95264,0.95350,-0.00638,-0.00135,-0.00194,0.00681,0.95350,0.00743,0.00724,3,12119,0,6748,0.12691,0.04475,0.35264,100,1,101.184,115,1,3,4295,187491,0,0,0.000,6.115,21.410,0,0.000,11.913,36.312,0,0,2,0,8
PPG,3,102813,4114071552,128,76352,82620,82363.344,256.656,95.172,0,0,0,0,68.18,68.18,0,0,0,99.00,0,1,24,1,1,29,29,0,0,0,4115340771,0.03564,0.00830,0.95044,0.95114,-0.00505,-0.00081,-0.00194,0.00547,0.95192,0.00308,0.00550,3,12142,0,6748,0.12691,0.04475,0.35264,100,1,101.184,115,1,3,4304,187491,0,0,0.000,6.115,21.410,0,0.000,11.913,36.312,0,0,2,0,8
PPG,3,102814,4114111552,184,76331,82556,82365.273,190.727,87.508,0,0,0,0,68.18,68.18,0,0,0,99.00,0,1,24,1,1,30,30,0,0,0,4115379725,0.03833,0.00537,0.95410,0.95489,-0.00638,-0.00055,-0.00167,0.00662,0.95489,0.00383,0.00662,3,12119,0,6748,0.12691,0.04475,0.35264,100,1,101.184,115,1,3,2605,187491,0,0,0.000,6.115,21.410,0,0.000,11.913,36.312,0,0,2,0,8
PPG,3,102815,4114151552,128,76287,82440,82366.023,73.977,65.594,0,0,0,0,68.18,68.18,0,0,0,99.00,0,1,24,1,1,31,31,0,0,0,4115421343,0.03271,0.00757,0.95166,0.95225,-0.00638,-0.00188,-0.00247,0.00710,0.96092,0.01049,0.00710,3,12111,0,6748,0.12691,0.04475,0.35264,100,1,101.184,115,1,3,4301,187491,0,0,0.000,6.115,21.410,0,0.000,11.913,36.312,0,0,2,0,8
PPG,3,102816,4114191552,129,76277,82393,82366.297,26.703,39.906,0,0,0,0,68.18,68.18,0,0,0,99.00,0,1,24,1,1,0,0,0,0,0,4115460437,0.03540,0.00586,0.94995,0.95063,-0.00585,-0.00001,-0.00194,0.00616,0.95705,0.00642,0.00711,3,12130,0,6748,0.12691,0.04475,0.35264,100,1,101.184,115,1,3,4300,187491,0,0,0.000,6.115,21.410,0,0.000,11.913,36.312,0,0,2,0,8
PPG,3,102817,4114231552,151,76254,82395,82366.586,28.414,11.562,0,0,0,0,68.18,68.18,0,0,0,99.00,0,1,24,1,1,1,1,0,0,0,4115499412,0.03955,0.00586,0.95142,0.95226,-0.00638,-0.00028,-0.00194,0.00668,0.95541,0.00315,0.00668,3,12126,0,6748,0.12691,0.04475,0.35264,100,1,101.184,115,1,3,2595,187491,0,0,0.000,6.115,21.410,0,0.000,11.913,36.312,0,0,2,0,8
PPG,3,102818,4114271552,133,76251,82392,82366.844,25.156,-15.586,0,0,0,0,68.18,68.18,0,0,0,99.00,0,1,24,1,1,2,2,0,0,0,4115541097,0.03784,0.00684,0.95313,0.95390,-0.00612,-0.00081,-0.00141,0.00633,0.95390,0.00584,0.00673,3,12180,0,6748,0.12691,0.04475,0.35264,100,1,101.184,115,1,3,4298,187491,0,0,0.000,6.115,21.410,0,0.000,11.913,36.312,0,0,2,0,8
PPG,3,102819,4114311552,524,76273,82403,82367.203,35.797,-42.500,0,0,0,0,68.18,68.18,0,0,0,99.00,0,1,24,1,1,3,3,0,0,0,4115580084,0.03979,0.00562,0.94678,0.94763,-0.00558,-0.00081,-0.00061,0.00568,0.96037,0.00889,0.00611,3,12136,0,6748,0.11778,0.04365,0.37062,100,1,100.735,115,1,3,2601,187491,0,0,0.000,6.115,21.410,0,0.000,11.913,36.312,0,0,2,0,8
PPG,3,102820,4114351552,192,76269,82413,82367.664,45.336,-71.367,0,0,0,0,68.18,68.18,0,0,0,99.00,0,1,24,1,1,4,4,0,0,0,4115622116,0.04028,0.00586,0.94849,0.94936,-0.00638,-0.00055,-0.00087,0.00647,0.95130,0.00669,0.00647,3,12132,0,6748,0.11778,0.04365,0.37062,100,1,100.735,115,1,3,4300,187491,0,0,0.000,6.115,21.410,0,0.000,11.913,36.312,0,0,2,0,8
PPG,3,102821,4114391552,149,76240,82406,82368.047,37.953,-92.102,1,0,1,840,68.18,68.18,0,0,0,99.00,0,1,24,1,1,5,5,0,0,0,4115661201,0.03833,0.00635,0.94849,0.94928,-0.00665,-0.00081,-0.00221,0.00705,0.95498,0.00562,0.00705,3,12120,0,6748,0.11778,0.04365,0.37062,100,1,100.735,115,1,3,4296,187491,0,0,48.500,6.115,21.410,1,157.812,11.913,36.312,1,1,2,0,8
PPG,3,102822,4114431552,135,76274,82427,82368.633,58.367,-93.109,0,0,0,0,68.18,68.18,0,0,0,99.00,0,1,24,1,1,6,6,0,0,0,4115700278,0.03687,0.00366,0.95190,0.95262,-0.00612,-0.00081,-0.00167,0.00639,0.95262,0.00321,0.00706,3,12119,0,6748,0.11778,0.04365,0.37062,100,1,100.735,115,1,3,2595,187491,0,0,0.000,6.014,20.737,0,0.000,11.921,36.353,0,0,2,0,8
PPG,3,102823,4114471552,175,76277,82427,82369.219,57.781,-85.500,0,0,0,0,68.18,68.18,0,0,0,99.00,0,1,24,1,1,7,7,0,0,0,4115741946,0.03833,0.00879,0.95386,0.95467,-0.00532,-0.00028,-0.00167,0.00558,0.95811,0.01389,0.00591,3,12159,0,6748,0.11778,0.04365,0.37062,100,1,100.735,115,1,3,4323,187491,0,0,0.000,6.014,20.737,0,0.000,11.921,36.353,0,0,2,0,8
PPG,3,102824,4114511552,129,76273,82440,82369.930,70.070,-75.570,0,0,0,0,68.18,68.18,0,0,0,99.00,0,1,24,1,1,8,8,0,0,0,4115780990,0.03979,0.00684,0.95020,0.95105,-0.00532,-0.00108,-0.00167,0.00568,0.95509,0.00429,0.00568,3,12112,0,6748,0.11778,0.04365,0.37062,100,1,100.735,115,1,3,4294,187491,0,0,0.000,6.014,20.737,0,0.000,11.921,36.353,0,0,2,0,8
PPG,3,102825,4114551552,128,76282,82470,82370.930,99.070,-62.727,0,0,0,0,68.18,68.18,0,0,0,99.00,0,1,24,1,1,9,9,0,0,0,4115819976,0.03882,0.00684,0.95215,0.95296,-0.00532,-0.00108,-0.00114,0.00554,0.95369,0.00264,0.00651,3,12130,0,6748,0.11778,0.04365,0.37062,100,1,100.735,115,1,3,2600,187491,0,0,0.000,6.014,20.737,0,0.000,11.921,36.353,0,0,2,0,8
PPG,3,102826,4114591552,129,76284,82480,82372.023,107.977,-48.781,0,0,0,0,68.18,68.18,0,0,0,99.00,0,1,24,1,1,10,10,0,0,0,4115861885,0.03931,0.00708,0.95215,0.95299,-0.00638,-0.00055,-0.00167,0.00662,0.95771,0.00556,0.00662,3,12340,0,6748,0.11778,0.04365,0.37062,100,1,100.735,115,1,3,4362,187491,0,0,0.000,6.014,20.737,0,0.000,11.921,36.353,0,0,2,0,8
PPG,3,102827,4114631552,128,76285,82505,82373.352,131.648,-33.141,0,0,0,0,68.18,68.18,0,0,0,99.00,0,1,24,1,1,11,11,0,0,0,4115900964,0.04102,0.00537,0.94971,0.95061,-0.00638,0.00025,-0.00167,0.00660,0.96041,0.01532,0.00660,3,12177,0,6748,0.11778,0.04365,0.37062,100,1,100.735,115,1,3,4299,187491,0,0,0.000,6.014,20.737,0,0.000,11.921,36.353,0,0,2,0,8
PPG,3,102828,4114671552,131,76309,82540,82375.016,164.984,-12.844,0,0,0,0,68.18,68.18,0,0,0,99.00,0,1,24,1,1,12,12,0,0,0,4115939909,0.03906,0.00757,0.95117,0.95200,-0.00505,-0.00001,-0.00114,0.00518,0.95538,0.00478,0.00597,3,12115,0,6748,0.11778,0.04365,0.37062,100,1,100.735,115,1,3,2594,187491,0,0,0.000,6.014,20.737,0,0.000,11.921,36.353,0,0,2,0,8
PPG,3,102829,4114711552,140,76335,82564,82376.906,187.094,6.680,0,0,0,0,68.18,68.18,0,0,0,99.00,0,1,24,1,1,13,13,0,0,0,4115976793,0.03638,0.00610,0.94897,0.94969,-0.00692,-0.00135,-0.00221,0.00738,0.95231,0.00262,0.00738,2,19539,0,6748,0.11778,0.04365,0.37062,100,1,100.735,115,1,3,2585,187491,0,0,0.000,6.014,20.737,0,0.000,11.921,36.353,0,0,2,0,8
PPG,3,102830,4114751552,132,76333,82580,82378.938,201.062,29.141,0,0,0,0,68.18,68.18,0,0,0,99.00,0,1,24,1,1,14,14,0,0,0,4116021153,0.03418,0.00537,0.95630,0.95692,-0.00585,-0.00135,-0.00167,0.00623,0.95856,0.00887,0.00710,3,12165,0,6748,0.11778,0.04365,0.37062,100,1,100.735,115,1,3,4306,187491,0,0,0.000,6.014,20.737,0,0.000,11.921,36.353,0,0,2,0,8
PPG,3,102831,4114791552,130,76332,82590,82381.047,208.953,50.461,0,0,0,0,68.18,68.18,0,0,0,99.00,0,1,24,1,1,15,15,0,0,0,4116060492,0.04102,0.00635,0.96094,0.96183,-0.00612,-0.00028,-0.00194,0.00642,0.96183,0.01207,0.00642,3,12367,0,6748,0.11778,0.04365,0.37062,100,1,100.735,115,1,3,4331,187491,0,0,0.000,6.014,20.737,0,0.000,11.921,36.353,0,0,2,0,8
PPG,3,102832,4114831552,130,76340,82596,82383.195,212.805,68.859,0,0,0,0,68.18,68.18,0,0,0,99.00,0,1,24,1,1,16,16,0,0,0,4116099792,0.03564,0.00073,0.95337,0.95404,-0.00585,-0.00135,-0.00087,0.00607,0.95423,0.01046,0.00646,3,12256,0,6748,0.11778,0.04365,0.37062,100,1,100.735,115,1,3,2630,187491,0,0,0.000,6.014,20.737,0,0.000,11.921,36.353,0,0,2,0,8
PPG,3,102833,4114871552,129,76335,82621,82385.570,235.430,88.961,0,0,0,0,68.18,68.18,0,0,0,99.00,0,1,24,1,1,17,17,0,0,0,4116141783,0.03906,0.00854,0.95190,0.95274,-0.00692,-0.00188,-0.00141,0.00730,0.95547,0.00635,0.00730,3,12247,0,6748,0.11778,0.04365,0.37062,100,1,100.735,115,1,3,4331,187491,0,0,0.000,6.014,20.737,0,0.000,11.921,36.353,0,0,2,0,8
PPG,3,102834,4114911552,130,76340,82624,82387.953,236.047,102.562,0,0,0,0,68.18,68.18,0,0,0,99.00,0,1,24,1,1,18,18,0,0,0,4116181101,0.03784,0.00659,0.95752,0.95829,-0.00558,-0.00135,-0.00087,0.00581,0.95829,0.01184,0.00605,3,12293,0,6748,0.11778,0.04365,0.37062,100,1,100.735,115,1,3,4340,187491,0,0,0.000,6.014,20.737,0,0.000,11.921,36.353,0,0,2,0,8
PPG,3,102835,4114951552,131,76352,82644,82390.516,253.484,107.211,0,0,0,0,68.18,68.18,0,0,0,99.00,0,1,24,1,1,19,19,0,0,0,4116220511,0.03760,0.00708,0.94556,0.94633,-0.00638,-0.00028,-0.00167,0.00661,0.95398,0.01017,0.00661,3,12255,0,6748,0.11778,0.04365,0.37062,100,1,100.735,115,1,3,4345,187491,0,0,0.000,6.014,20.737,0,0.000,11.921,36.353,0,0,2,0,8
PPG,3,102836,4114991552,193,76349,82641,82393.023,247.977,105.812,0,1,0,0,68.18,68.18,0,0,0,99.00,0,1,24,1,1,20,20,0,0,0,4116259880,0.03857,0.00757,0.95044,0.95125,-0.00479,0.00025,-0.00167,0.00508,0.95791,0.00780,0.00627,3,12298,0,6748,0.11778,0.04365,0.37062,100,1,100.735,115,1,3,2622,187491,0,0,0.000,6.014,20.737,0,0.000,11.921,36.353,0,0,2,0,8
PPG,3,102837,4115031552,130,76302,82502,82394.109,107.891,89.320,0,0,0,0,68.18,68.18,0,0,0,99.00,0,1,24,1,1,21,21,0,0,0,4116301919,0.03882,0.00317,0.94897,0.94977,-0.00612,-0.00055,-0.00167,0.00637,0.95505,0.00527,0.00637,3,12242,0,6748,0.11778,0.04365,0.37062,100,1,100.735,115,1,3,4323,187491,0,0,0.000,6.014,20.737,0,0.000,11.921,36.353,0,0,2,0,8
PPG,3,102838,4115071552,146,76265,82404,82394.211,9.789,62.148,0,0,0,0,68.18,68.18,0,0,0,99.00,0,1,24,1,1,22,22,0,0,0,4116341184,0.03711,0.00269,0.94971,0.95044,-0.00585,-0.00161,-0.00114,0.00618,0.96032,0.00996,0.00643,3,12278,0,6748,0.11778,0.04365,0.37062,100,1,100.735,115,1,3,4334,187491,0,0,0.000,6.014,20.737,0,0.000,11.921,36.353,0,0,2,0,8
PPG,3,102839,4115111552,129,76252,82356,82393.828,-37.828,30.211,0,0,0,0,68.18,68.18,0,0,0,99.00,0,1,24,1,1,23,23,0,0,0,4116380594,0.03662,0.00879,0.94824,0.94899,-0.00558,0.00052,-0.00221,0.00603,0.95724,0.00680,0.00676,3,12249,0,6748,0.11778,0.04365,0.37062,100,1,100.735,115,1,3,4330,187491,0,0,0.000,6.014,20.737,0,0.000,11.921,36.353,0,0,2,0,8
PPG,3,102840,4115151552,131,76230,82340,82393.289,-53.289,-6.281,0,0,0,0,68.18,68.18,0,0,0,99.00,0,1,24,1,1,24,24,0,0,0,4116419871,0.04053,0.00049,0.95239,0.95325,-0.00505,-0.00028,-0.00194,0.00542,0.95770,0.00871,0.00583,3,12251,0,6748,0.11778,0.04365,0.37062,100,1,100.735,115,1,3,2618,187491,0,0,0.000,6.014,20.737,0,0.000,11.921,36.353,0,0,2,0,8
PPG,3,102841,4115191552,135,76238,82346,82392.812,-46.812,-42.992,0,0,0,0,68.18,68.18,0,0,0,99.00,0,1,24,1,1,25,25,0,0,0,4116461836,0.03760,0.00757,0.94775,0.94853,-0.00612,-0.00055,-0.00141,0.00630,0.95732,0.00879,0.00630,3,12301,0,6748,0.11778,0.04365,0.37062,100,1,100.735,115,1,3,4339,187491,0,0,0.000,6.014,20.737,0,0.000,11.921,36.353,0,0,2,0,8
PPG,3,102842,4115231552,130,76234,82357,82392.453,-35.453,-80.492,0,0,0,0,68.18,68.18,0,0,0,99.00,0,1,24,1,1,26,26,0,0,0,4116501175,0.03809,0.00830,0.94873,0.94953,-0.00558,-0.00001,-0.00141,0.00576,0.95866,0.00913,0.00703,3,12226,0,6748,0.11778,0.04365,0.37062,100,1,100.735,115,1,3,4326,187491,0,0,0.000,6.014,20.737,0,0.000,11.921,36.353,0,0,2,0,8
PPG,3,102843,4115271552,157,76243,82372,82392.250,-20.250,-116.172,1,0,1,880,68.18,68.18,0,0,0,99.00,0,1,24,1,1,27,27,0,0,0,4116540429,0.04150,0.00562,0.94751,0.94844,-0.00638,-0.00001,-0.00194,0.00667,0.95561,0.00717,0.00680,3,12234,0,6748,0.11778,0.04365,0.37062,100,1,100.735,115,1,3,2621,187491,0,0,87.570,6.014,20.737,1,200.320,11.921,36.353,1,1,2,0,8
PPG,3,102844,4115311552,526,76247,82373,82392.055,-19.055,-131.250,0,0,0,0,68.18,68.18,0,0,0,100.00,0,1,24,1,1,28,28,0,0,0,4116582422,0.03467,0.00220,0.95166,0.95229,-0.00585,-0.00001,-0.00167,0.00609,0.95497,0.00654,0.00609,3,12231,0,6748,0.11311,0.04560,0.40317,100,1,99.921,83,1,3,4335,187491,0,0,0.000,6.169,21.761,0,0.000,12.195,37.622,0,0,2,0,8
PPG,3,102845,4115351552,180,76249,82375,82391.883,-16.883,-130.641,0,0,0,0,68.18,68.18,0,0,0,100.00,0,1,24,1,1,29,29,0,0,0,4116622156,0.03760,0.00684,0.94434,0.94511,-0.00558,-0.00135,-0.00114,0.00586,0.95278,0.00432,0.00627,3,12244,0,6748,0.11311,0.04560,0.40317,100,1,99.921,83,1,3,4336,187491,0,0,0.000,6.169,21.761,0,0.000,12.195,37.622,0,0,2,0,8
PPG,3,102846,4115391552,205,76265,82401,82391.977,9.023,-120.258,0,0,0,0,68.18,68.18,0,0,0,100.00,0,1,24,1,1,30,30,0,0,0,4116661468,0.03955,0.00562,0.94556,0.94640,-0.00532,0.00025,-0.00167,0.00558,0.96237,0.01726,0.00669,3,12221,0,6748,0.11311,0.04560,0.40317,100,1,99.921,83,1,3,4354,187491,0,0,0.000,6.169,21.761,0,0.000,12.195,37.622,0,0,2,0,8
PPG,3,102847,4115431552,128,76251,82395,82392.008,2.992,-106.906,0,0,0,0,68.18,68.18,0,0,0,100.00,0,1,24,1,1,31,31,0,0,0,4116700713,0.03809,0.00391,0.95093,0.95170,-0.00505,-0.00028,-0.00167,0.00533,0.95418,0.00625,0.00599,3,12123,0,6748,0.11311,0.04560,0.40317,100,1,99.921,83,1,3,4303,187491,0,0,0.000,6.169,21.761,0,0.000,12.195,37.622,0,0,2,0,8
PPG,3,102848,4115471552,128,76276,82431,82392.398,38.602,-89.312,0,0,0,0,68.18,68.18,0,0,0,100.00,0,1,24,1,1,0,0,0,0,0,4116739839,0.04028,0.00464,0.95459,0.95545,-0.00612,-0.00108,-0.00194,0.00651,0.95545,0.00740,0.00651,3,12118,0,6748,0.11311,0.04560,0.40317,100,1,99.921,83,1,3,2601,187491,0,0,0.000,6.169,21.761,0,0.000,12.195,37.622,0,0,2,0,8
PPG,3,102849,4115511552,129,76285,82450,82392.977,57.023,-70.328,0,0,0,0,68.18,68.18,0,0,0,100.00,0,1,24,1,1,1,1,0,0,0,4116781514,0.03906,0.00952,0.94995,0.95080,-0.00505,-0.00055,-0.00167,0.00535,0.95103,0.00442,0.00655,3,12114,0,6748,0.11311,0.04560,0.40317,100,1,99.921,83,1,3,4297,187491,0,0,0.000,6.169,21.761,0,0.000,12.195,37.622,0,0,2,0,8
PPG,3,102850,4115551552,133,76296,82458,82393.625,64.375,-51.938,0,0,0,0,68.18,68.18,0,0,0,100.00,0,1,24,1,1,2,2,0,0,0,4116820522,0.03809,0.00708,0.94897,0.94976,-0.00612,-0.00081,-0.00141,0.00633,0.95405,0.00325,0.00633,3,12145,0,6748,0.11311,0.04560,0.40317,100,1,99.921,83,1,3,2597,187491,0,0,0.000,6.169,21.761,0,0.000,12.195,37.622,0,0,2,0,8
PPG,3,102851,4115591552,205,76296,82474,82394.430,79.570,-31.711,0,0,0,0,68.18,68.18,0,0,0,100.00,0,1,24,1,1,3,3,0,0,0,4116862138,0.04102,0.00732,0.94702,0.94794,-0.00612,-0.00108,-0.00141,0.00637,0.95489,0.00695,0.00688,3,12133,0,6748,0.11311,0.04560,0.40317,100,1,99.921,83,1,3,4337,187491,0,0,0.000,6.169,21.761,0,0.000,12.195,37.622,0,0,2,0,8
PPG,3,102852,4115631552,129,76297,82507,82395.555,111.445,-8.406,0,0,0,0,68.18,68.18,0,0,0,100.00,0,1,24,1,1,4,4,0,0,0,4116901257,0.03784,0.00562,0.95264,0.95340,-0.00585,-0.00028,-0.00141,0.00602,0.95376,0.00582,0.00623,3,12117,0,6748,0.11311,0.04560,0.40317,100,1,99.921,83,1,3,4301,187491,0,0,0.000,6.169,21.761,0,0.000,12.195,37.622,0,0,2,0,8
PPG,3,102853,4115671552,128,76289,82521,82396.812,124.188,13.742,0,0,0,0,68.18,68.18,0,0,0,100.00,0,1,24,1,1,5,5,0,0,0,4116940231,0.03809,0.00928,0.95239,0.95320,-0.00479,-0.00028,-0.00034,0.00481,0.95509,0.00440,0.00667,3,12127,0,6748,0.11311,0.04560,0.40317,100,1,99.921,83,1,3,2599,187491,0,0,0.000,6.169,21.761,0,0.000,12.195,37.622,0,0,2,0,8
PPG,3,102854,4115711552,139,76293,82513,82397.977,115.023,36.141,0,0,0,0,68.18,68.18,0,0,0,100.00,0,1,24,1,1,6,6,0,0,0,4116976704,0.04053,0.00488,0.95093,0.95180,-0.00558,-0.00081,-0.00141,0.00582,0.95180,0.00635,0.00610,2,19134,0,6748,0.11311,0.04560,0.40317,100,1,99.921,83,1,3,2591,187491,0,0,0.000,6.169,21.761,0,0.000,12.195,37.622,0,0,2,0,8
PPG,3,102855,4115751552,148,76297,82516,82399.156,116.844,54.688,0,0,0,0,68.18,68.18,0,0,0,100.00,0,1,24,1,1,7,7,0,0,0,4117020964,0.03540,0.00684,0.95288,0.95356,-0.00692,-0.00001,-0.00114,0.00701,0.95356,0.00506,0.00701,3,12116,0,6748,0.11311,0.04560,0.40317,100,1,99.921,83,1,3,4299,187491,0,0,0.000,6.169,21.761,0,0.000,12.195,37.622,0,0,2,0,8
PPG,3,102856,4115791552,132,76300,82531,82400.477,130.523,71.758,0,0,0,0,68.18,68.18,0,0,0,100.00,0,1,24,1,1,8,8,0,0,0,4117059996,0.03906,0.00317,0.94971,0.95052,-0.00532,-0.00108,-0.00221,0.00586,0.95448,0.00810,0.00648,3,12116,0,6748,0.11311,0.04560,0.40317,100,1,99.921,83,1,3,2597,187491,0,0,0.000,6.169,21.761,0,0.000,12.195,37.622,0,0,2,0,8
PPG,3,102857,4115831552,130,76316,82568,82402.148,165.852,84.172,0,0,0,0,68.18,68.18,0,0,0,100.00,0,1,24,1,1,9,9,0,0,0,4117101628,0.03833,0.00513,0.94702,0.94781,-0.00532,0.00105,-0.00194,0.00576,0.95488,0.00707,0.00662,3,12132,0,6748,0.11311,0.04560,0.40317,100,1,99.921,83,1,3,4297,187491,0,0,0.000,6.169,21.761,0,0.000,12.195,37.622,0,0,2,0,8
PPG,3,102858,4115871552,132,76334,82568,82403.805,164.195,89.398,0,0,0,0,68.18,68.18,0,0,0,100.00,0,1,24,1,1,10,10,0,0,0,4117140605,0.03931,0.00562,0.94702,0.94785,-0.00558,-0.00055,-0.00194,0.00594,0.95811,0.01030,0.00642,3,12130,0,6748,0.11311,0.04560,0.40317,100,1,99.921,83,1,3,2604,187491,0,0,0.000,6.169,21.761,0,0.000,12.195,37.622,0,0,2,0,8
PPG,3,102859,4115911552,194,76311,82570,82405.469,164.531,87.703,0,0,0,0,68.18,68.18,0,0,0,100.00,0,1,24,1,1,11,11,0,0,0,4117182208,0.03833,0.00537,0.94800,0.94879,-0.00558,-0.00028,-0.00034,0.00560,0.95374,0.00495,0.00563,3,12161,0,6748,0.11311,0.04560,0.40317,100,1,99.921,83,1,3,4297,187491,0,0,0.000,6.169,21.761,0,0.000,12.195,37.622,0,0,2,0,8
PPG,3,102860,4115951552,131,76291,82546,82406.875,139.125,80.969,0,0,0,0,68.18,68.18,0,0,0,100.00,0,1,24,1,1,12,12,0,0,0,4117221248,0.04150,0.00732,0.95435,0.95528,-0.00638,-0.00055,-0.00300,0.00708,0.95528,0.00547,0.00708,3,12121,0,6748,0.11311,0.04560,0.40317,100,1,99.921,83,1,3,4295,187491,0,0,0.000,6.169,21.761,0,0.000,12.195,37.622,0,0,2,0,8
PPG,3,102861,4115991552,130,76257,82435,82407.156,27.844,65.383,0,0,0,0,68.18,68.18,0,0,0,100.00,0,1,24,1,1,13,13,0,0,0,4117260201,0.03857,0.00781,0.95581,0.95662,-0.00665,-0.00001,-0.00141,0.00680,0.95662,0.00733,0.00694,3,12118,0,6748,0.11311,0.04560,0.40317,100,1,99.921,83,1,3,2605,187491,0,0,0.000,6.169,21.761,0,0.000,12.195,37.622,0,0,2,0,8
PPG,3,102862,4116031552,134,76222,82325,82406.336,-81.336,39.688,0,1,0,0,68.18,68.18,0,0,0,100.00,0,1,24,1,1,14,14,0,0,0,4117302130,0.03906,0.00439,0.95215,0.95296,-0.00585,-0.00135,-0.00141,0.00617,0.95296,0.00811,0.00668,3,12290,0,6748,0.11311,0.04560,0.40317,100,1,99.921,83,1,3,4376,187491,0,0,0.000,6.169,21.761,0,0.000,12.195,37.622,0,0,2,0,8
PPG,3,102863,4116071552,131,76195,82280,82405.070,-125.070,8.438,0,0,0,0,68.18,68.18,0,0,0,100.00,0,1,24,1,1,15,15,0,0,0,4117341211,0.03662,0.00586,0.95288,0.95360,-0.00692,-0.00081,-0.00114,0.00706,0.95374,0.00424,0.00706,3,12132,0,6748,0.11311,0.04560,0.40317,100,1,99.921,83,1,3,4359,187491,0,0,0.000,6.169,21.761,0,0.000,12.195,37.622,0,0,2,0,8
PPG,3,102864,4116111552,131,76204,82267,82403.688,-136.688,-29.258,0,0,0,0,68.18,68.18,0,0,0,100.00,0,1,24,1,1,16,16,0,0,0,4117380259,0.03809,0.00439,0.95605,0.95682,-0.00585,-0.00055,-0.00034,0.00589,0.95682,0.00890,0.00639,3,12134,0,6748,0.11311,0.04560,0.40317,100,1,99.921,83,1,3,2595,187491,0,0,0.000,6.169,21.761,0,0.000,12.195,37.622,0,0,2,0,8
PPG,3,102865,4116151552,133,76199,82279,82402.438,-123.438,-65.750,0,0,0,0,68.18,68.18,0,0,0,100.00,0,1,24,1,1,17,17,0,0,0,4117422040,0.03735,0.00830,0.95166,0.95243,-0.00558,-0.00055,-0.00087,0.00568,0.95243,0.00917,0.00576,3,12114,0,6748,0.11311,0.04560,0.40317,100,1,99.921,83,1,3,4298,187491,0,0,0.000,6.169,21.761,0,0.000,12.195,37.622,0,0,2,0,8
PPG,3,102866,4116191552,152,76211,82273,82401.141,-128.141,-101.781,1,0,1,920,65.22,65.22,0,0,0,100.00,0,1,24,1,1,18,18,0,0,0,4117461259,0.04028,0.00391,0.95264,0.95350,-0.00532,-0.00081,-0.00034,0.00539,0.95350,0.00616,0.00623,3,12140,0,6748,0.11311,0.04560,0.40317,100,1,99.921,83,1,3,4306,187491,0,0,80.156,6.169,21.761,1,220.648,12.195,37.622,1,1,2,0,8
PPG,3,102867,4116231552,127,76198,82276,82399.891,-123.891,-134.398,0,0,0,0,65.22,65.22,0,0,0,100.00,0,1,24,1,1,19,19,0,0,0,4117500695,0.04028,0.00903,0.95703,0.95792,-0.00532,-0.00001,-0.00167,0.00557,0.95792,0.00649,0.00582,3,12235,0,6748,0.11311,0.04560,0.40317,100,1,99.921,83,1,3,2633,187491,0,0,0.000,6.258,22.351,0,0.000,12.561,39.322,0,0,2,0,8
PPG,3,102868,4116271552,130,76172,82261,82398.500,-137.500,-150.758,0,0,0,0,65.22,65.22,0,0,0,100.00,0,1,24,1,1,20,20,0,0,0,4117542680,0.03687,0.00684,0.94775,0.94850,-0.00532,-0.00055,-0.00087,0.00542,0.95578,0.00672,0.00568,3,12264,0,6748,0.11311,0.04560,0.40317,100,1,99.921,83,1,3,4342,187491,0,0,0.000,6.258,22.351,0,0.000,12.561,39.322,0,0,2,0,8
PPG,3,102869,4116311552,527,76183,82254,82397.055,-143.055,-151.102,0,0,0,0,65.22,65.22,0,0,0,100.00,0,1,24,1,1,21,21,0,0,0,4117581981,0.03833,0.00366,0.95020,0.95098,-0.00612,-0.00028,-0.00114,0.00623,0.95102,0.00134,0.00654,3,12255,0,6748,0.11982,0.05459,0.45561,100,1,98.610,65,1,3,4313,187491,0,0,0.000,6.258,22.351,0,0.000,12.561,39.322,0,0,2,0,8
PPG,3,102870,4116351552,203,76172,82241,82395.492,-154.492,-145.820,0,0,0,0,65.22,65.22,0,0,0,100.00,0,1,24,1,1,22,22,0,0,0,4117621745,0.03784,0.00635,0.94775,0.94853,-0.00532,-0.00028,-0.00114,0.00545,0.95632,0.00693,0.00545,3,12254,0,6748,0.11982,0.05459,0.45561,100,1,98.610,65,1,3,4356,187491,0,0,0.000,6.258,22.351,0,0.000,12.561,39.322,0,0,2,0,8
PPG,3,102871,4116391552,166,76152,82224,82393.773,-169.773,-139.461,0,0,0,0,65.22,65.22,0,0,0,100.00,0,1,24,1,1,23,23,0,0,0,4117661157,0.04199,0.00293,0.94214,0.94308,-0.00505,-0.00001,0.00019,0.00506,0.95471,0.00760,0.00568,3,12209,0,6748,0.11982,0.05459,0.45561,100,1,98.610,65,1,3,4339,187491,0,0,0.000,6.247,22.435,0,0.000,12.561,39.322,0,0,2,0,8
PPG,3,102872,4116431552,130,76166,82265,82392.484,-127.484,-129.359,0,0,0,0,65.22,65.22,0,0,0,100.00,0,1,24,1,1,24,24,0,0,0,4117700566,0.03735,0.00317,0.95361,0.95435,-0.00479,-0.00081,-0.00114,0.00499,0.95435,0.00834,0.00635,3,12253,0,6748,0.11982,0.05459,0.45561,100,1,98.610,65,1,3,2630,187491,0,0,0.000,6.247,22.435,0,0.000,12.561,39.322,0,0,2,0,8
PPG,3,102873,4116471552,129,76176,82306,82391.617,-85.617,-113.898,0,0,0,0,65.22,65.22,0,0,0,100.00,0,1,24,1,1,25,25,0,0,0,4117742542,0.04004,0.00586,0.95264,0.95350,-0.00558,-0.00055,-0.00087,0.00568,0.95534,0.00148,0.00644,3,12269,0,6748,0.11982,0.05459,0.45561,100,1,98.610,65,1,3,4316,187491,0,0,0.000,6.247,22.435,0,0.000,12.561,39.322,0,0,2,0,8
PPG,3,102874,4116511552,138,76196,82309,82390.789,-81.789,-98.992,0,0,0,0,65.22,65.22,0,0,0,100.00,0,1,24,1,1,26,26,0,0,0,4117781839,0.04077,0.00244,0.94897,0.94985,-0.00452,-0.00001,-0.00141,0.00473,0.95148,0.00251,0.00616,3,12259,0,6748,0.11982,0.05459,0.45561,100,1,98.610,65,1,3,4366,187491,0,0,0.000,6.247,22.435,0,0.000,12.561,39.322,0,0,2,0,8
PPG,3,102875,4116551552,129,76199,82337,82390.250,-53.250,-79.180,0,0,0,0,65.22,65.22,0,0,0,100.00,0,1,24,1,1,27,27,0,0,0,4117821166,0.03833,0.00464,0.94751,0.94830,-0.00638,-0.00081,-0.00247,0.00689,0.95739,0.00909,0.00689,3,12193,0,6748,0.11982,0.05459,0.45561,100,1,98.610,65,1,3,4319,187491,0,0,0.000,6.247,22.435,0,0.000,12.561,39.322,0,0,2,0,8
PPG,3,102876,4116591552,139,76200,82355,82389.898,-34.898,-55.953,0,0,0,0,65.22,65.22,0,0,0,100.00,0,1,24,1,1,28,28,0,0,0,4117860438,0.03857,0.00488,0.94946,0.95026,-0.00532,0.00025,-0.00141,0.00551,0.95274,0.00445,0.00619,3,12247,0,6748,0.11982,0.05459,0.45561,100,1,98.610,65,1,3,2625,187491,0,0,0.000,6.247,22.435,0,0.000,12.561,39.322,0,0,2,0,8
PPG,3,102877,4116631552,129,76202,82371,82389.711,-18.711,-27.531,0,0,0,0,65.22,65.22,0,0,0,100.00,0,1,24,1,1,29,29,0,0,0,4117902415,0.03687,0.00854,0.95923,0.95997,-0.00479,-0.00081,-0.00114,0.00499,0.95997,0.00702,0.00609,3,12268,0,6748,0.11982,0.05459,0.45561,100,1,98.610,65,1,3,4337,187491,0,0,0.000,6.247,22.435,0,0.000,12.561,39.322,0,0,2,0,8
PPG,3,102878,4116671552,130,76204,82363,82389.445,-26.445,2.578,0,0,0,0,65.22,65.22,0,0,0,100.00,0,1,24,1,1,30,30,0,0,0,4117941668,0.03882,0.00708,0.94702,0.94784,-0.00558,-0.00028,-0.00087,0.00566,0.95418,0.00633,0.00606,3,12228,0,6748,0.11982,0.05459,0.45561,100,1,98.610,65,1,3,4333,187491,0,0,0.000,6.247,22.435,0,0.000,12.561,39.322,0,0,2,0,8
PPG,3,102879,4116711552,137,76208,82386,82389.414,-3.414,29.062,0,0,0,0,65.22,65.22,0,0,0,100.00,0,1,24,1,1,31,31,0,0,0,4117978083,0.03979,0.00757,0.95288,0.95374,-0.00718,-0.00081,-0.00167,0.00742,0.95374,0.00352,0.00742,2,21671,0,6749,0.11982,0.05459,0.45561,100,1,98.610,65,1,3,2610,187491,0,0,0.000,6.247,22.435,0,0.000,12.561,39.322,0,0,2,0,8
PPG,3,102880,4116751552,136,76207,82398,82389.500,8.500,49.609,0,0,0,0,65.22,65.22,0,0,0,100.00,0,1,24,1,1,0,0,0,0,0,4118022802,0.03784,0.00586,0.94824,0.94901,-0.00612,-0.00028,-0.00114,0.00623,0.94901,0.01267,0.00669,3,12250,0,6750,0.11982,0.05459,0.45561,100,1,98.610,65,1,3,4341,187491,0,0,0.000,6.247,22.435,0,0.000,12.561,39.322,0,0,2,0,8
PPG,3,102881,4116791552,139,76204,82430,82389.906,40.094,67.141,0,0,0,0,65.22,65.22,0,0,0,100.00,0,1,24,1,1,1,1,0,0,0,4118062060,0.03979,0.00684,0.94922,0.95008,-0.00692,-0.00081,-0.00221,0.00731,0.95730,0.00829,0.00731,3,12215,0,6750,0.11982,0.05459,0.45561,100,1,98.610,65,1,3,4343,187491,0,0,0.000,6.247,22.435,0,0.000,12.561,39.322,0,0,2,0,8
PPG,3,102882,4116831552,131,76221,82448,82390.484,57.516,76.852,0,0,0,0,65.22,65.22,0,0,0,100.00,0,1,24,1,1,2,2,0,0,0,4118101339,0.03491,0.00415,0.94653,0.94719,-0.00532,0.00025,-0.00194,0.00567,0.95419,0.00701,0.00714,3,12205,0,6750,0.11982,0.05459,0.45561,100,1,98.610,65,1,3,4302,187491,0,0,0.000,6.247,22.435,0,0.000,12.561,39.322,0,0,2,0,8
PPG,3,102883,4116871552,134,76221,82456,82391.141,64.859,82.477,0,0,0,0,65.22,65.22,0,0,0,100.00,0,1,24,1,1,3,3,0,0,0,4118140482,0.04175,0.00562,0.95557,0.95649,-0.00585,-0.00081,-0.00061,0.00594,0.95649,0.00596,0.00623,3,12111,0,6750,0.11982,0.05459,0.45561,100,1,98.610,65,1,3,2600,187491,0,0,0.000,6.247,22.435,0,0.000,12.561,39.322,0,0,2,0,8
PPG,3,102884,4116911552,173,76206,82401,82391.242,9.758,80.062,0,0,0,0,65.22,65.22,0,0,0,100.00,0,1,24,1,1,4,4,0,0,0,4118182014,0.03613,0.00464,0.95166,0.95236,-0.00532,-0.00081,-0.00247,0.00592,0.95915,0.01180,0.00620,3,12109,0,6750,0.11982,0.05459,0.45561,100,1,98.610,65,1,3,4295,187491,0,0,0.000,6.247,22.435,0,0.000,12.561,39.322,0,0,2,0,8
PPG,3,102885,4116951552,167,76158,82269,82390.023,-121.023,67.141,0,0,0,0,65.22,65.22,0,0,0,100.00,0,1,24,1,1,5,5,0,0,0,4118221201,0.03760,0.00610,0.95337,0.95413,-0.00665,-0.00028,-0.00061,0.00668,0.95413,0.00780,0.00668,3,12152,0,6750,0.11982,0.05459,0.45561,100,1,98.610,65,1,3,4296,187491,0,0,0.000,6.247,22.435,0,0.000,12.561,39.322,0,0,2,0,8
PPG,3,102886,4116991552,131,76108,82164,82387.766,-223.766,40.867,0,0,0,0,65.22,65.22,0,0,0,100.00,0,1,24,1,1,6,6,0,0,0,4118260231,0.03662,0.00757,0.95361,0.95435,-0.00612,-0.00001,-0.00194,0.00642,0.95541,0.00413,0.00685,3,12135,0,6750,0.11982,0.05459,0.45561,100,1,98.610,65,1,3,2604,187491,0,0,0.000,6.247,22.435,0,0.000,12.561,39.322,0,0,2,0,8
PPG,3,102887,4117031552,130,76084,82125,82385.141,-260.141,9.422,0,0,0,0,65.22,65.22,0,0,0,100.00,0,1,24,1,1,7,7,0,0,0,4118301826,0.03906,0.00488,0.96021,0.96101,-0.00638,-0.00108,-0.00141,0.00663,0.96101,0.00759,0.00663,3,12158,0,6750,0.11982,0.05459,0.45561,100,1,98.610,65,1,3,4332,187491,0,0,0.000,6.247,22.435,0,0.000,12.561,39.322,0,0,2,0,8
PPG,3,102888,4117071552,131,76076,82103,82382.320,-279.320,-29.391,0,0,0,0,65.22,65.22,0,0,0,100.00,0,1,24,1,1,8,8,0,0,0,4118340793,0.03906,0.01001,0.95410,0.95495,-0.00718,-0.00028,-0.00141,0.00732,0.95499,0.00602,0.00732,3,12116,0,6750,0.11982,0.05459,0.45561,100,1,98.610,65,1,3,2598,187491,0,0,0.000,6.247,22.435,0,0.000,12.561,39.322,0,0,2,0,8
PPG,3,102889,4117111552,130,76084,82103,82379.523,-276.523,-71.133,0,0,0,0,65.22,65.22,0,0,0,100.00,0,1,24,1,1,9,9,0,0,0,4118382370,0.03955,0.00610,0.95483,0.95567,-0.00558,-0.00081,-0.00141,0.00582,0.95667,0.00323,0.00665,3,12118,0,6750,0.11982,0.05459,0.45561,100,1,98.610,65,1,3,4301,187491,0,0,0.000,6.247,22.435,0,0.000,12.561,39.322,0,0,2,0,8
PPG,3,102890,4117151552,131,76093,82136,82377.086,-241.086,-111.594,0,0,0,0,65.22,65.22,0,0,0,100.00,0,1,24,1,1,10,10,0,0,0,4118421393,0.03809,0.00635,0.95239,0.95317,-0.00505,-0.00055,-0.00300,0.00590,0.95317,0.00321,0.00720,3,12115,0,6750,0.11982,0.05459,0.45561,100,1,98.610,65,1,3,4294,187491,0,0,0.000,6.247,22.435,0,0.000,12.561,39.322,0,0,2,0,8
PPG,3,102891,4117191552,131,76082,82141,82374.727,-233.727,-144.586,1,0,0,0,65.22,65.22,0,0,0,100.00,0,1,24,1,1,11,11,0,0,0,4118460384,0.03931,0.00342,0.95508,0.95589,-0.00612,-0.00135,-0.00141,0.00642,0.95589,0.00509,0.00650,3,12127,0,6750,0.11982,0.05459,0.45561,100,1,98.610,65,1,3,2596,187491,0,0,0.000,6.247,22.435,0,233.578,12.561,39.322,1,0,2,0,8
PPG,3,102892,4117231552,152,76086,82122,82372.203,-250.203,-158.438,0,0,1,1020,65.22,65.22,0,0,0,100.00,0,1,24,1,1,12,12,0,0,0,4118501952,0.03662,0.00830,0.94604,0.94679,-0.00479,-0.00055,-0.00061,0.00485,0.95179,0.00566,0.00604,3,12117,0,6750,0.11982,0.05459,0.45561,100,1,98.610,65,1,3,4299,187491,0,0,76.078,6.247,22.435,1,0.000,12.561,39.322,0,1,2,0,8
PPG,3,102893,4117271552,131,76092,82115,82369.633,-254.633,-155.891,0,0,0,0,65.22,65.22,0,0,0,100.00,0,1,24,1,1,13,13,0,0,0,4118541048,0.04004,0.00659,0.94946,0.95033,-0.00692,-0.00108,-0.00141,0.00714,0.95033,0.00541,0.00714,3,12112,0,6750,0.11982,0.05459,0.45561,100,1,98.610,65,1,3,2602,187491,0,0,0.000,6.300,22.784,0,0.000,12.962,41.186,0,0,2,0,8
PPG,3,102894,4117311552,523,76092,82143,82367.367,-224.367,-145.008,0,0,0,0,65.22,65.22,0,0,0,100.00,0,1,24,1,1,14,14,0,0,0,4118582614,0.03662,0.00391,0.95117,0.95188,-0.00479,-0.00055,-0.00114,0.00495,0.95188,0.00180,0.00530,3,12116,0,6750,0.16436,0.09546,0.58083,100,1,95.479,83,1,3,4295,187491,0,0,0.000,6.300,22.784,0,0.000,12.962,41.186,0,0,2,0,8
PPG,3,102895,4117351552,182,76113,82177,82365.461,-188.461,-126.438,0,0,0,0,65.22,65.22,0,0,0,100.00,0,1,24,1,1,15,15,0,0,0,4118622024,0.03320,0.00879,0.95630,0.95692,-0.00718,-0.00081,-0.00167,0.00742,0.95692,0.00368,0.00742,3,12112,0,6750,0.16436,0.09546,0.58083,100,1,95.479,83,1,3,4299,187491,0,0,0.000,6.300,22.784,0,0.000,12.962,41.186,0,0,2,0,8
PPG,3,102896,4117391552,133,76138,82205,82363.859,-158.859,-104.367,0,0,0,0,65.22,65.22,0,0,0,100.00,0,1,24,1,1,16,16,0,0,0,4118661104,0.03906,0.00415,0.95142,0.95223,-0.00425,-0.00188,-0.00167,0.00494,0.95910,0.00970,0.00667,3,12128,0,6750,0.16436,0.09546,0.58083,100,1,95.479,83,1,3,2603,187491,0,0,0.000,6.300,22.784,0,0.000,12.962,41.186,0,0,2,0,8
PPG,3,102897,4117431552,130,76134,82240,82362.617,-122.617,-82.961,0,0,0,0,65.22,65.22,0,0,0,100.00,0,1,24,1,1,17,17,0,0,0,4118702699,0.04077,0.00342,0.94995,0.95083,-0.00612,-0.00028,-0.00114,0.00623,0.95614,0.00427,0.00755,3,12127,0,6750,0.16436,0.09546,0.58083,100,1,95.479,83,1,3,4312,187491,0,0,0.000,6.300,22.784,0,0.000,12.962,41.186,0,0,2,0,8
PPG,3,102898,4117471552,131,76131,82233,82361.320,-128.320,-63.320,0,0,0,0,65.22,65.22,0,0,0,100.00,0,1,24,1,1,18,18,0,0,0,4118741746,0.03931,0.00195,0.94556,0.94638,-0.00585,-0.00108,-0.00221,0.00635,0.95256,0.00594,0.00719,3,12128,0,6750,0.16436,0.09546,0.58083,100,1,95.479,83,1,3,4295,187491,0,0,0.000,6.300,22.784,0,0.000,12.962,41.186,0,0,2,0,8
PPG,3,102899,4117511552,130,76132,82259,82360.297,-101.297,-37.398,0,0,0,0,65.22,65.22,0,0,0,100.00,0,1,24,1,1,19,19,0,0,0,4118780738,0.03540,0.00464,0.95264,0.95331,-0.00585,-0.00028,-0.00221,0.00626,0.95710,0.01073,0.00626,3,12133,0,6750,0.16436,0.09546,0.58083,100,1,95.479,83,1,3,2604,187491,0,0,0.000,6.300,22.784,0,0.000,12.962,41.186,0,0,2,0,8
PPG,3,102900,4117551552,131,76127,82253,82359.227,-106.227,-10.438,0,0,0,0,65.22,65.22,0,0,0,100.00,0,1,24,1,1,20,20,0,0,0,4118822353,0.03931,0.01343,0.95166,0.95257,-0.00479,-0.00055,-0.00247,0.00541,0.95319,0.00349,0.00642,3,12147,0,6750,0.16436,0.09546,0.58083,100,1,95.479,83,1,3,4301,187491,0,0,0.000,6.300,22.784,0,0.000,12.962,41.186,0,0,2,0,8
PPG,3,102901,4117591552,131,76117,82270,82358.336,-88.336,15.711,0,0,0,0,65.22,65.22,0,0,0,100.00,0,1,24,1,1,21,21,0,0,0,4118861399,0.03662,0.00586,0.95483,0.95555,-0.00612,0.00025,-0.00114,0.00623,0.95603,0.00540,0.00646,3,12119,0,6750,0.16436,0.09546,0.58083,100,1,95.479,83,1,3,4298,187491,0,0,0.000,6.300,22.784,0,0.000,12.962,41.186,0,0,2,0,8
PPG,3,102902,4117631552,132,76113,82251,82357.266,-106.266,36.133,0,0,0,0,65.22,65.22,0,0,0,100.00,0,1,24,1,1,22,22,0,0,0,4118900372,0.04053,0.00342,0.94995,0.95082,-0.00505,0.00025,-0.00194,0.00542,0.95661,0.01228,0.00609,3,12120,0,6750,0.16436,0.09546,0.58083,100,1,95.479,83,1,3,2599,187491,0,0,0.000,6.300,22.784,0,0.000,12.962,41.186,0,0,2,0,8
PPG,3,102903,4117671552,130,76109,82281,82356.500,-75.500,55.742,0,0,0,0,65.22,65.22,0,0,0,100.00,0,1,24,1,1,23,23,0,0,0,4118941965,0.03711,0.00513,0.94775,0.94849,-0.00479,-0.00055,-0.00194,0.00519,0.95336,0.00487,0.00535,3,12113,0,6750,0.16436,0.09546,0.58083,100,1,95.479,83,1,3,4298,187491,0,0,0.000,6.300,22.784,0,0.000,12.962,41.186,0,0,2,0,8
PPG,3,102904,4117711552,137,76128,82285,82355.781,-70.781,67.961,0,0,0,0,65.22,65.22,0,0,0,100.00,0,1,24,1,1,24,24,0,0,0,4118978123,0.03687,0.00781,0.95044,0.95119,-0.00585,-0.00028,-0.00194,0.00617,0.95465,0.00616,0.00697,2,21493,0,6751,0.16436,0.09546,0.58083,100,1,95.479,83,1,3,2589,187491,0,0,0.000,6.300,22.784,0,0.000,12.962,41.186,0,0,2,0,8
PPG,3,102905,4117751552,132,76136,82325,82355.477,-30.477,78.312,0,0,0,0,65.22,65.22,0,0,0,100.00,0,1,24,1,1,25,25,0,0,0,4119022470,0.03442,0.00562,0.95361,0.95425,-0.00558,-0.00081,-0.00114,0.00576,0.95425,0.00409,0.00613,3,12177,0,6752,0.16436,0.09546,0.58083,100,1,95.479,83,1,3,4295,187491,0,0,0.000,6.300,22.784,0,0.000,12.962,41.186,0,0,2,0,8
PPG,3,102906,4117791552,171,76132,82315,82355.070,-40.070,78.758,0,0,0,0,65.22,65.22,0,0,0,100.00,0,1,24,1,1,26,26,0,0,0,4119061486,0.03760,0.00537,0.95239,0.95315,-0.00585,-0.00135,-0.00167,0.00623,0.95526,0.00211,0.00714,3,12109,0,6752,0.16436,0.09546,0.58083,100,1,95.479,83,1,3,4294,187491,0,0,0.000,6.300,22.784,0,0.000,12.962,41.186,0,0,2,0,8
PPG,3,102907,4117831552,172,76108,82191,82353.430,-162.430,66.602,0,0,0,0,65.22,65.22,0,0,0,100.00,0,1,24,1,1,27,27,0,0,0,4119100488,0.03735,0.00635,0.95020,0.95095,-0.00532,-0.00081,-0.00194,0.00572,0.95214,0.00119,0.00678,3,12114,0,6752,0.16436,0.09546,0.58083,100,1,95.479,83,1,3,2598,187491,0,0,0.000,6.300,22.784,0,0.000,12.962,41.186,0,0,2,0,8
PPG,3,102908,4117871552,134,76073,82091,82350.805,-259.805,41.633,0,0,0,0,65.22,65.22,0,0,0,100.00,0,1,24,1,1,28,28,0,0,0,4119142111,0.03857,0.00464,0.95020,0.95099,-0.00585,-0.00081,-0.00114,0.00602,0.95144,0.00397,0.00679,3,12131,0,6752,0.16436,0.09546,0.58083,100,1,95.479,83,1,3,4298,187491,0,0,0.000,6.300,22.784,0,0.000,12.962,41.186,0,0,2,0,8
PPG,3,102909,4117911552,129,76047,82051,82347.805,-296.805,15.656,0,0,0,0,65.22,65.22,0,0,0,100.00,0,1,24,1,1,29,29,0,0,0,4119181087,0.03906,0.00684,0.94507,0.94590,-0.00532,-0.00055,-0.00194,0.00569,0.95496,0.00906,0.00651,3,12125,0,6752,0.16436,0.09546,0.58083,100,1,95.479,83,1,3,2606,187491,0,0,0.000,6.300,22.784,0,0.000,12.962,41.186,0,0,2,0,8
PPG,3,102910,4117951552,130,76048,82063,82344.953,-281.953,-11.836,0,0,0,0,65.22,65.22,0,0,0,100.00,0,1,24,1,1,30,30,0,0,0,4119222674,0.03833,0.00415,0.95825,0.95903,-0.00585,-0.00028,-0.00247,0.00636,0.95903,0.00660,0.00810,3,12147,0,6752,0.16436,0.09546,0.58083,100,1,95.479,83,1,3,4330,187491,0,0,0.000,6.300,22.784,0,0.000,12.962,41.186,0,0,2,0,8
PPG,3,102911,4117991552,129,76059,82073,82342.234,-269.234,-38.719,0,0,0,0,65.22,65.22,0,0,0,100.00,0,1,24,1,1,31,31,0,0,0,4119262138,0.03662,0.00806,0.95288,0.95362,-0.00558,-0.00081,-0.00194,0.00597,0.95662,0.01224,0.00669,3,12195,0,6752,0.16436,0.09546,0.58083,100,1,95.479,83,1,3,4300,187491,0,0,0.000,6.300,22.784,0,0.000,12.962,41.186,0,0,2,0,8
PPG,3,102912,4118031552,131,76076,82093,82339.742,-246.742,-70.414,0,0,0,0,65.22,65.22,0,0,0,100.00,0,1,24,1,1,0,0,0,0,0,4119301174,0.03882,0.00513,0.94775,0.94856,-0.00558,-0.00108,-0.00300,0.00643,0.95257,0.00439,0.00703,3,12115,0,6752,0.16436,0.09546,0.58083,100,1,95.479,83,1,3,2606,187491,0,0,0.000,6.300,22.784,0,0.000,12.962,41.186,0,0,2,0,8
PPG,3,102913,4118071552,129,76054,82078,82337.125,-259.125,-102.422,0,0,0,0,65.22,65.22,0,0,0,100.00,0,1,24,1,1,1,1,0,0,0,4119342782,0.03564,0.00269,0.95410,0.95477,-0.00532,-0.00081,-0.00061,0.00541,0.95477,0.00389,0.00667,3,12141,0,6752,0.16436,0.09546,0.58083,100,1,95.479,83,1,3,4310,187491,0,0,87.570,6.300,22.784,1,0.000,12.962,41.186,0,0,2,0,8
PPG,3,102914,4118111552,204,76060,82075,82334.500,-259.500,-115.594,1,0,1,880,68.18,68.18,0,0,0,100.00,0,1,24,1,1,2,2,0,0,0,4119381892,0.03491,0.00854,0.95093,0.95161,-0.00612,-0.00135,-0.00141,0.00642,0.95161,0.00489,0.00642,3,12113,0,6752,0.16436,0.09546,0.58083,100,1,95.479,83,1,3,4295,187491,0,0,0.000,6.300,22.784,0,237.195,12.962,41.186,1,1,2,0,8
PPG,3,102915,4118151552,128,76078,82067,82331.828,-264.828,-113.523,0,0,0,0,68.18,68.18,0,0,0,100.00,0,1,24,1,1,3,3,0,0,0,4119421145,0.03882,0.01050,0.94775,0.94861,-0.00558,0.00025,-0.00141,0.00576,0.95769,0.00821,0.00626,3,12120,0,6752,0.16436,0.09546,0.58083,100,1,95.479,83,1,3,2651,187491,0,0,0.000,6.418,23.566,0,0.000,13.336,42.921,0,0,2,0,8
PPG,3,102916,4118191552,130,76060,82062,82329.133,-267.133,-104.797,0,0,0,0,68.18,68.18,0,0,0,100.00,0,1,24,1,1,4,4,0,0,0,4119463113,0.03979,0.00513,0.94800,0.94885,-0.00505,-0.00055,-0.00061,0.00512,0.96267,0.01383,0.00512,3,12294,0,6752,0.16436,0.09546,0.58083,100,1,95.479,83,1,3,4328,187491,0,0,0.000,6.418,23.566,0,0.000,13.336,42.921,0,0,2,0,8
PPG,3,102917,4118231552,130,76072,82097,82326.812,-229.812,-92.789,0,0,0,0,68.18,68.18,0,0,0,100.00,0,1,24,1,1,5,5,0,0,0,4119502440,0.03735,0.00391,0.95215,0.95289,-0.00532,-0.00081,-0.00167,0.00563,0.95455,0.00570,0.00616,3,12248,0,6752,0.16436,0.09546,0.58083,100,1,95.479,83,1,3,4344,187491,0,0,0.000,6.418,23.566,0,0.000,13.336,42.921,0,0,2,0,8
