type,session_id,sample_index,sample_time_us,processing_time_us,red_raw,ir_raw,ir_dc,ir_ac,ir_filtered,peak_custom,peak_sparkfun,peak_accepted,ibi_ms,bpm_instant,bpm_robust,hr_status,ppg_quality,ppg_quality_flags,spo2_result,spo2_status,spo2_quality,led_amplitude,sparkfun_check_count,sparkfun_available,hw_fifo_read_ptr,hw_fifo_write_ptr,hw_fifo_overflow,suspected_drops,missing_samples,mpu_time_us,ax_g,ay_g,az_g,acc_mag_g,gx_rad_s,gy_rad_s,gz_rad_s,gyro_mag_rad_s,mpu_window_peak_g,mpu_window_delta_g,mpu_window_gyro_rad_s,mpu_window_samples,mpu_dt_us,mpu_saturated,mpu_missed_deadlines,ppg_mod_ir_pct,ppg_mod_red_pct,ppg_ratio_r,spo2_maxim,spo2_maxim_valid,spo2_custom_candidate,maxim_hr,maxim_hr_valid,measurement_state,loop_last_us,loop_max_us,display_render_us,i2c_failures,red_prominence,red_threshold,red_snr,red_candidate,ir_prominence,ir_threshold,ir_snr,ir_candidate,peak_fused,detector_state,quarantine_remaining_ms,synchronized_count
PPG,1,88093,3525271552,208,75422,80909,80762.422,146.578,30.992,0,0,0,0,96.77,96.77,2,1,512,nan,4,0,24,1,1,29,29,0,0,0,3526400674,0.03857,0.00830,0.95557,0.95638,-0.00558,-0.00001,-0.00327,0.00647,0.95669,0.00543,0.00647,3,12247,0,5851,0.20367,0.14163,0.69541,74,1,92.615,136,1,3,4316,187491,0,0,0.000,4.473,89.126,0,0.000,16.974,11.445,0,0,1,0,5
PPG,1,88094,3525311552,188,75419,80930,80764.094,165.906,29.094,0,0,0,0,96.77,96.77,2,1,512,nan,4,0,24,1,1,30,30,0,0,0,3526440042,0.04102,0.00781,0.94897,0.94989,-0.00585,-0.00001,-0.00194,0.00616,0.94989,0.00704,0.00654,3,12162,0,5851,0.20367,0.14163,0.69541,74,1,92.615,136,1,3,4318,187491,0,0,0.000,4.473,89.126,0,0.000,16.095,12.480,0,0,1,0,5
PPG,1,88095,3525351552,125,75367,80887,80765.320,121.680,18.188,1,0,0,0,96.77,96.77,2,1,512,nan,4,0,24,1,1,31,31,0,0,0,3526479170,0.04224,0.00928,0.94629,0.94728,-0.00558,-0.00028,-0.00221,0.00601,0.95696,0.00968,0.00639,3,12120,0,5851,0.20367,0.14163,0.69541,74,1,92.615,136,1,3,2642,187491,0,0,0.000,4.473,89.126,0,150.820,16.095,12.480,1,0,1,0,5
PPG,1,88096,3525391552,147,75291,80812,80765.789,46.211,0.148,0,0,1,800,96.77,96.77,2,1,0,nan,4,0,24,1,1,0,0,0,0,0,3526520877,0.03394,0.00439,0.95532,0.95593,-0.00532,-0.00241,-0.00114,0.00595,0.95593,0.00809,0.00703,3,12118,0,5851,0.20367,0.14163,0.69541,74,1,92.615,136,1,3,4300,187491,0,0,101.914,4.473,89.126,1,0.000,16.095,12.480,0,1,1,0,6
PPG,1,88097,3525431552,125,75256,80801,80766.141,34.859,-22.844,0,0,0,0,96.77,96.77,2,1,0,nan,4,0,24,1,1,1,1,0,0,0,3526559880,0.03882,0.01025,0.95020,0.95104,-0.00638,-0.00215,-0.00194,0.00701,0.95391,0.00838,0.00791,3,12115,0,5851,0.20367,0.14163,0.69541,74,1,92.615,136,1,3,4300,187491,0,0,0.000,4.649,93.383,0,0.000,16.240,12.764,0,0,1,0,6
PPG,1,88098,3525471552,124,75234,80799,80766.469,32.531,-47.906,0,0,0,0,96.77,96.77,2,1,0,nan,4,0,24,1,1,2,2,0,0,0,3526598846,0.04004,0.00366,0.94653,0.94739,-0.00638,-0.00028,-0.00061,0.00642,0.95184,0.00296,0.00662,3,12138,0,5851,0.20367,0.14163,0.69541,74,1,92.615,136,1,3,2630,187491,0,0,0.000,4.649,93.383,0,0.000,16.240,12.764,0,0,1,0,6
PPG,1,88099,3525511552,125,75201,80776,80766.562,9.438,-68.094,0,0,0,0,96.77,96.77,2,1,0,nan,4,0,24,1,1,3,3,0,0,0,3526640412,0.03784,0.00879,0.94873,0.94953,-0.00612,-0.00108,-0.00167,0.00643,0.95442,0.00490,0.00643,3,12121,0,5851,0.20367,0.14163,0.69541,74,1,92.615,136,1,3,4297,187491,0,0,0.000,4.649,93.383,0,0.000,16.240,12.764,0,0,1,0,6
PPG,1,88100,3525551552,522,75184,80778,80766.680,11.320,-80.461,0,0,0,0,96.77,96.77,2,1,0,nan,4,1,24,1,1,4,4,0,0,0,3526679435,0.04004,0.01050,0.94946,0.95036,-0.00612,0.00052,-0.00114,0.00624,0.95420,0.00468,0.00730,3,12117,0,5851,0.14944,0.22288,1.49144,80,1,nan,68,1,3,2597,187491,0,0,0.000,4.649,93.383,0,0.000,16.240,12.764,0,0,1,0,6
PPG,1,88101,3525591552,176,75188,80810,80767.109,42.891,-89.750,0,0,0,0,96.77,96.77,2,1,0,nan,4,1,24,1,1,5,5,0,0,0,3526721466,0.03809,0.00635,0.94800,0.94878,-0.00452,-0.00081,-0.00167,0.00489,0.95500,0.00540,0.00611,3,12122,0,5851,0.14944,0.22288,1.49144,80,1,nan,68,1,3,4301,187491,0,0,0.000,4.649,93.383,0,0.000,16.240,12.764,0,0,1,0,6
PPG,1,88102,3525631552,125,75210,80831,80767.750,63.250,-90.203,0,0,0,0,96.77,96.77,2,1,0,nan,4,1,24,1,1,6,6,0,0,0,3526760435,0.04175,0.00415,0.95386,0.95478,-0.00612,-0.00215,-0.00087,0.00654,0.95478,0.00537,0.00709,3,12123,0,5851,0.14944,0.22288,1.49144,80,1,nan,68,1,3,4301,187491,0,0,0.000,4.649,93.383,0,0.000,16.240,12.764,0,0,1,0,6
PPG,1,88103,3525671552,130,75191,80799,80768.062,30.938,-82.258,0,0,0,0,96.77,96.77,2,1,0,nan,4,1,24,1,1,7,7,0,0,0,3526799384,0.03662,0.00537,0.95557,0.95628,-0.00638,-0.00028,-0.00114,0.00649,0.95628,0.00695,0.00730,3,12120,0,5851,0.14944,0.22288,1.49144,80,1,nan,68,1,3,2598,187491,0,0,0.000,4.649,93.383,0,0.000,16.240,12.764,0,0,1,0,6
PPG,1,88104,3525711552,133,75128,80694,80767.320,-73.320,-82.492,0,0,0,0,96.77,96.77,2,1,0,nan,4,1,24,1,1,8,8,0,0,0,3526840991,0.03906,0.00781,0.95337,0.95420,-0.00505,-0.00055,-0.00194,0.00544,0.95420,0.00989,0.00698,3,12110,0,5851,0.14944,0.22288,1.49144,80,1,nan,68,1,3,4297,187491,0,0,0.000,4.649,93.383,0,0.000,16.024,13.055,0,0,1,0,6
PPG,1,88105,3525751552,126,75116,80649,80766.141,-117.141,-90.617,0,0,0,0,96.77,96.77,2,1,0,nan,4,1,24,1,1,9,9,0,0,0,3526879912,0.03906,0.00562,0.94922,0.95004,-0.00505,-0.00081,-0.00061,0.00515,0.95553,0.00549,0.00532,3,12120,0,5851,0.14944,0.22288,1.49144,80,1,nan,68,1,3,4300,187491,0,0,0.000,4.649,93.383,0,0.000,16.024,13.055,0,0,1,0,6
PPG,1,88106,3525791552,124,75160,80722,80765.703,-43.703,-89.789,0,0,0,0,96.77,96.77,2,1,0,nan,4,1,24,1,1,10,10,0,0,0,3526918882,0.03809,0.00854,0.95166,0.95246,-0.00585,-0.00081,-0.00141,0.00607,0.95246,0.00419,0.00607,3,12157,0,5851,0.14944,0.22288,1.49144,80,1,nan,68,1,3,2597,187491,0,0,0.000,4.649,93.383,0,0.000,16.024,13.055,0,0,1,0,6
PPG,1,88107,3525831552,125,75201,80810,80766.148,43.852,-79.562,0,0,0,0,96.77,96.77,2,1,0,nan,4,1,24,1,1,11,11,0,0,0,3526960384,0.04248,0.00439,0.95093,0.95189,-0.00425,0.00052,-0.00114,0.00443,0.95189,0.00595,0.00680,3,12113,0,5851,0.14944,0.22288,1.49144,80,1,nan,68,1,3,4297,187491,0,0,0.000,4.649,93.383,0,0.000,16.024,13.055,0,0,1,0,6
PPG,1,88108,3525871552,125,75238,80881,80767.297,113.703,-66.023,0,0,0,0,96.77,96.77,2,1,0,nan,4,1,24,1,1,12,12,0,0,0,3526999371,0.03931,0.00586,0.94458,0.94542,-0.00452,0.00052,-0.00221,0.00505,0.95572,0.00704,0.00592,3,12117,0,5851,0.14944,0.22288,1.49144,80,1,nan,68,1,3,2600,187491,0,0,0.000,4.649,93.383,0,0.000,16.024,13.055,0,0,1,0,6
PPG,1,88109,3525911552,125,75257,80929,80768.914,160.086,-51.469,0,0,0,0,96.77,96.77,2,1,0,nan,4,1,24,1,1,13,13,0,0,0,3527040891,0.04077,0.00562,0.95068,0.95157,-0.00585,-0.00055,-0.00167,0.00611,0.95157,0.00309,0.00614,3,12116,0,5851,0.14944,0.22288,1.49144,80,1,nan,68,1,3,4296,187491,0,0,0.000,4.649,93.383,0,0.000,16.024,13.055,0,0,1,0,6
PPG,1,88110,3525951552,124,75273,80961,80770.836,190.164,-27.883,0,0,0,0,96.77,96.77,2,1,0,nan,4,1,24,1,1,14,14,0,0,0,3527079808,0.03687,0.01050,0.95703,0.95780,-0.00585,0.00052,-0.00167,0.00611,0.95780,0.00919,0.00611,3,12123,0,5851,0.14944,0.22288,1.49144,80,1,nan,68,1,3,4302,187491,0,0,0.000,4.649,93.383,0,0.000,16.024,13.055,0,0,1,0,6
PPG,1,88111,3525991552,125,75251,80938,80772.508,165.492,8.680,0,0,0,0,96.77,96.77,2,1,0,nan,4,1,24,1,1,15,15,0,0,0,3527118795,0.03809,0.00781,0.95117,0.95197,-0.00532,-0.00001,-0.00247,0.00586,0.95491,0.01022,0.00586,3,12180,0,5851,0.14944,0.22288,1.49144,80,1,nan,68,1,3,2602,187491,0,0,0.000,4.649,93.383,0,0.000,16.024,13.055,0,0,1,0,6
PPG,1,88112,3526031552,124,75249,80935,80774.133,160.867,49.742,0,0,0,0,96.77,96.77,2,1,0,nan,4,1,24,1,1,16,16,0,0,0,3527160336,0.03857,0.00244,0.95483,0.95562,-0.00585,-0.00135,-0.00087,0.00607,0.95562,0.00276,0.00622,3,12132,0,5851,0.14944,0.22288,1.49144,80,1,nan,68,1,3,4303,187491,0,0,0.000,4.649,93.383,0,0.000,16.024,13.055,0,0,1,0,6
PPG,1,88113,3526071552,125,75278,80948,80775.875,172.125,80.070,0,0,0,0,96.77,96.77,2,1,0,nan,4,1,24,1,1,17,17,0,0,0,3527199273,0.04053,0.00537,0.94678,0.94766,-0.00612,-0.00001,-0.00114,0.00622,0.95372,0.00331,0.00622,3,12126,0,5851,0.14944,0.22288,1.49144,80,1,nan,68,1,3,2598,187491,0,0,0.000,4.649,93.383,0,0.000,16.024,13.055,0,0,1,0,6
PPG,1,88114,3526111552,130,75273,80985,80777.969,207.031,102.320,0,0,0,0,96.77,96.77,2,1,0,nan,4,1,24,1,1,18,18,0,0,0,3527244927,0.03784,0.00757,0.94458,0.94537,-0.00558,-0.00028,-0.00167,0.00584,0.95420,0.00883,0.00615,3,16243,0,5851,0.14944,0.22288,1.49144,80,1,nan,68,1,3,16177,187491,0,0,0.000,4.649,93.383,0,0.000,16.024,13.055,0,0,1,0,6
PPG,1,88115,3526151552,127,75295,81021,80780.398,240.602,115.617,0,0,0,0,96.77,96.77,2,1,0,nan,4,1,24,1,1,19,19,0,0,0,3527281361,0.03931,0.00610,0.95288,0.95371,-0.00638,-0.00081,-0.00087,0.00649,0.95371,0.00622,0.00660,3,12123,0,5851,0.14944,0.22288,1.49144,80,1,nan,68,1,3,4306,187491,0,0,0.000,4.649,93.383,0,0.000,16.024,13.055,0,0,1,0,6
PPG,1,88116,3526191552,125,75272,81028,80782.875,245.125,118.961,0,0,0,0,96.77,96.77,2,1,0,nan,4,1,24,1,1,20,20,0,0,0,3527320333,0.04004,0.00220,0.94751,0.94836,-0.00532,-0.00081,-0.00114,0.00550,0.95499,0.00663,0.00628,3,12176,0,5851,0.14944,0.22288,1.49144,80,1,nan,68,1,3,4304,187491,0,0,0.000,4.649,93.383,0,0.000,16.024,13.055,0,0,1,0,6
PPG,1,88117,3526231552,126,75304,81067,80785.719,281.281,120.812,0,0,0,0,96.77,96.77,2,1,0,nan,4,1,24,1,1,21,21,0,0,0,3527359279,0.04150,0.00366,0.95508,0.95599,-0.00612,-0.00108,-0.00167,0.00643,0.95599,0.00650,0.00643,3,12122,0,5851,0.14944,0.22288,1.49144,80,1,nan,68,1,3,2597,187491,0,0,0.000,4.649,93.383,0,0.000,16.024,13.055,0,0,1,0,6
PPG,1,88118,3526271552,126,75316,81103,80788.891,314.109,129.180,0,0,0,0,96.77,96.77,2,1,0,nan,4,1,24,1,1,22,22,0,0,0,3527400848,0.03735,0.00562,0.94800,0.94875,-0.00745,-0.00081,-0.00087,0.00754,0.95701,0.00826,0.00754,3,12112,0,5851,0.14944,0.22288,1.49144,80,1,nan,68,1,3,4308,187491,0,0,0.000,4.649,93.383,0,0.000,16.024,13.055,0,0,1,0,6
PPG,1,88119,3526311552,127,75323,81116,80792.164,323.836,138.039,0,0,0,0,96.77,96.77,2,1,0,nan,4,1,24,1,1,23,23,0,0,0,3527439847,0.04053,0.00610,0.96021,0.96108,-0.00665,-0.00081,-0.00221,0.00705,0.96108,0.01029,0.00705,3,12120,0,5851,0.14944,0.22288,1.49144,80,1,nan,68,1,3,4300,187491,0,0,0.000,4.649,93.383,0,0.000,16.024,13.055,0,0,1,0,6
PPG,1,88120,3526351552,136,75328,81113,80795.375,317.625,144.859,0,1,0,0,96.77,96.77,2,1,0,nan,4,1,24,1,1,24,24,0,0,0,3527478774,0.03906,0.00415,0.94702,0.94784,-0.00638,-0.00028,-0.00114,0.00649,0.95431,0.00677,0.00687,3,12126,0,5851,0.14944,0.22288,1.49144,80,1,nan,68,1,3,2596,187491,0,0,0.000,4.649,93.383,0,0.000,16.024,13.055,0,0,1,0,6
PPG,1,88121,3526391552,127,75316,81140,80798.820,341.180,150.500,0,0,0,0,96.77,96.77,2,1,0,nan,4,1,24,1,1,25,25,0,0,0,3527520335,0.03833,0.00708,0.94873,0.94953,-0.00505,0.00025,-0.00087,0.00513,0.94986,0.00227,0.00628,3,12151,0,5851,0.14944,0.22288,1.49144,80,1,nan,68,1,3,4303,187491,0,0,0.000,4.649,93.383,0,0.000,16.024,13.055,0,0,1,0,6
PPG,1,88122,3526431552,134,75299,81090,80801.734,288.266,147.406,0,0,0,0,96.77,96.77,2,1,0,nan,4,1,24,1,1,26,26,0,0,0,3527559341,0.03784,0.00537,0.94702,0.94779,-0.00558,0.00052,-0.00087,0.00568,0.95619,0.00840,0.00611,3,12113,0,5851,0.14944,0.22288,1.49144,80,1,nan,68,1,3,2615,187491,0,0,0.000,4.649,93.383,0,0.000,16.024,13.055,0,0,1,0,6
PPG,1,88123,3526471552,126,75272,80990,80803.617,186.383,132.430,0,0,0,0,96.77,96.77,2,1,0,nan,4,1,24,1,1,27,27,0,0,0,3527600879,0.03589,0.00635,0.95068,0.95138,-0.00558,-0.00055,-0.00114,0.00573,0.95514,0.00734,0.00644,3,12119,0,5851,0.14944,0.22288,1.49144,80,1,nan,68,1,3,4303,187491,0,0,0.000,4.649,93.383,0,0.000,16.024,13.055,0,0,1,0,6
PPG,1,88124,3526511552,204,75239,80962,80805.203,156.797,104.031,0,0,0,0,96.77,96.77,2,1,0,nan,4,1,24,1,1,28,28,0,0,0,3527640050,0.03589,0.00513,0.94995,0.95064,-0.00612,-0.00055,-0.00141,0.00630,0.95430,0.00366,0.00656,3,12333,0,5851,0.14944,0.22288,1.49144,80,1,nan,68,1,3,4344,187491,0,0,0.000,4.649,93.383,0,0.000,16.024,13.055,0,0,1,0,6
PPG,1,88125,3526551552,522,75247,80985,80807.000,178.000,70.367,0,0,0,0,96.77,96.77,2,1,0,nan,4,1,24,1,1,29,29,0,0,0,3527679249,0.03613,0.00586,0.95142,0.95212,-0.00558,-0.00001,-0.00141,0.00576,0.95770,0.00558,0.00577,3,12131,0,5851,0.14389,0.26348,1.83120,89,1,nan,107,1,3,2594,187491,0,0,0.000,4.649,93.383,0,0.000,16.024,13.055,0,0,1,0,6
PPG,1,88126,3526591552,175,75268,81038,80809.312,228.688,43.430,0,0,0,0,96.77,96.77,2,1,0,nan,4,1,24,1,1,30,30,0,0,0,3527721226,0.04102,0.00586,0.94971,0.95061,-0.00558,-0.00135,-0.00114,0.00586,0.95353,0.00267,0.00600,3,12123,0,5851,0.14389,0.26348,1.83120,89,1,nan,107,1,3,4310,187491,0,0,0.000,4.649,93.383,0,0.000,16.024,13.055,0,0,1,0,6
PPG,1,88127,3526631552,128,75292,81044,80811.656,232.344,21.867,0,0,0,0,96.77,96.77,2,1,0,nan,4,1,24,1,1,31,31,0,0,0,3527760429,0.03467,0.00879,0.95117,0.95184,-0.00638,0.00025,-0.00061,0.00642,0.95856,0.00795,0.00654,3,12255,0,5851,0.14389,0.26348,1.83120,89,1,nan,107,1,3,4300,187491,0,0,216.102,4.649,93.383,1,0.000,16.024,13.055,0,0,1,0,6
PPG,1,88128,3526671552,129,75275,81031,80813.852,217.148,-1.203,0,0,0,0,96.77,96.77,2,1,0,nan,4,1,24,1,1,0,0,0,0,0,3527799498,0.04297,0.00806,0.95532,0.95632,-0.00585,-0.00001,-0.00114,0.00596,0.95638,0.00556,0.00653,3,12121,0,5851,0.14389,0.26348,1.83120,89,1,nan,107,1,3,2599,187491,0,0,0.000,4.649,93.383,0,0.000,16.024,13.055,0,0,1,0,6
PPG,1,88129,3526711552,151,75254,81036,80816.070,219.930,-14.258,1,0,1,1300,96.77,96.77,2,1,16,nan,4,1,24,1,1,1,1,0,0,0,3527841426,0.04053,0.00586,0.95361,0.95449,-0.00505,-0.00108,-0.00061,0.00520,0.95641,0.00827,0.00594,3,12254,0,5851,0.14389,0.26348,1.83120,89,1,nan,107,1,3,4332,187491,0,0,0.000,4.649,93.383,0,241.117,16.024,13.055,1,1,1,0,7
PPG,1,88130,3526751552,126,75277,81050,80818.406,231.594,-10.141,0,0,0,0,96.77,96.77,2,1,16,nan,4,1,24,1,1,2,2,0,0,0,3527880769,0.04102,0.00439,0.95215,0.95304,-0.00638,-0.00081,-0.00141,0.00659,0.95451,0.00773,0.00659,3,12245,0,5851,0.14389,0.26348,1.83120,89,1,nan,107,1,3,4338,187491,0,0,0.000,5.517,114.360,0,0.000,16.715,14.438,0,0,1,0,7
PPG,1,88131,3526791552,136,75288,81082,80821.039,260.961,-0.203,0,0,0,0,96.77,96.77,2,1,16,nan,4,1,24,1,1,3,3,0,0,0,3527920033,0.04297,0.01025,0.95166,0.95268,-0.00692,-0.00108,-0.00114,0.00709,0.95268,0.00260,0.00709,3,12235,0,5851,0.14389,0.26348,1.83120,89,1,nan,107,1,3,4359,187491,0,0,0.000,5.517,114.360,0,0.000,16.715,14.438,0,0,1,0,7
PPG,1,88132,3526831552,137,75274,81081,80823.641,257.359,6.211,0,0,0,0,96.77,96.77,2,1,16,nan,4,1,24,1,1,4,4,0,0,0,3527959324,0.03955,0.01025,0.95557,0.95644,-0.00692,-0.00081,-0.00141,0.00710,0.95644,0.00504,0.00710,3,12246,0,5851,0.14389,0.26348,1.83120,89,1,nan,107,1,3,2625,187491,0,0,0.000,5.517,114.360,0,0.000,16.715,14.438,0,0,1,0,7
PPG,1,88133,3526871552,127,75273,81112,80826.523,285.477,8.586,0,0,0,0,96.77,96.77,2,1,16,nan,4,1,24,1,1,5,5,0,0,0,3528001169,0.04053,0.00732,0.95337,0.95426,-0.00505,-0.00108,-0.00247,0.00573,0.95858,0.01016,0.00648,3,12196,0,5851,0.14389,0.26348,1.83120,89,1,nan,107,1,3,4338,187491,0,0,0.000,5.517,114.360,0,0.000,16.715,14.438,0,0,1,0,7
PPG,1,88134,3526911552,135,75281,81125,80829.508,295.492,13.156,0,0,0,0,96.77,96.77,2,1,16,nan,4,1,24,1,1,6,6,0,0,0,3528040470,0.04053,0.00781,0.95020,0.95109,-0.00585,-0.00188,-0.00141,0.00630,0.95109,0.00798,0.00665,3,12282,0,5851,0.14389,0.26348,1.83120,89,1,nan,107,1,3,4329,187491,0,0,0.000,5.517,114.360,0,0.000,16.715,14.438,0,0,1,0,7
PPG,1,88135,3526951552,128,75267,81138,80832.594,305.406,22.594,0,0,0,0,96.77,96.77,2,1,16,nan,4,1,24,1,1,7,7,0,0,0,3528079725,0.03833,0.00952,0.95361,0.95443,-0.00532,-0.00295,-0.00087,0.00614,0.95443,0.00592,0.00644,3,12199,0,5851,0.14389,0.26348,1.83120,89,1,nan,107,1,3,4344,187491,0,0,0.000,5.517,114.360,0,0.000,16.715,14.438,0,0,1,0,7
PPG,1,88136,3526991552,127,75253,81140,80835.664,304.336,31.852,0,0,0,0,96.77,96.77,2,1,16,nan,4,1,24,1,1,8,8,0,0,0,3528119047,0.04150,0.00659,0.95215,0.95308,-0.00612,-0.00401,-0.00141,0.00745,0.95600,0.00292,0.00757,3,12273,0,5851,0.14389,0.26348,1.83120,89,1,nan,107,1,3,2630,187491,0,0,0.000,5.517,114.360,0,0.000,16.715,14.438,0,0,1,0,7
PPG,1,88137,3527031552,144,75215,81130,80838.609,291.391,40.133,0,0,0,0,96.77,96.77,2,1,16,nan,4,1,24,1,1,9,9,0,0,0,3528160989,0.03809,0.01221,0.95068,0.95152,-0.00558,-0.00215,-0.00221,0.00638,0.95684,0.01072,0.00658,3,12239,0,5851,0.14389,0.26348,1.83120,89,1,nan,107,1,3,4311,187491,0,0,0.000,5.857,79.776,0,0.000,16.715,14.438,0,0,1,0,7
PPG,1,88138,3527071552,126,75218,81142,80841.641,300.359,46.750,0,0,0,0,96.77,96.77,2,1,16,nan,4,1,24,1,1,10,10,0,0,0,3528200179,0.03784,0.00635,0.95215,0.95292,-0.00505,-0.00001,-0.00087,0.00513,0.95292,0.00157,0.00604,3,12222,0,5851,0.14389,0.26348,1.83120,89,1,nan,107,1,3,4333,187491,0,0,0.000,5.857,79.776,0,0.000,16.715,14.438,0,0,1,0,7
PPG,1,88139,3527111552,140,75226,81159,80844.812,314.188,55.742,0,0,0,0,96.77,96.77,2,1,16,nan,4,1,24,1,1,11,11,0,0,0,3528246452,0.03906,0.01025,0.95117,0.95203,-0.00532,0.00105,-0.00141,0.00560,0.95759,0.00630,0.00647,3,19275,0,5851,0.14389,0.26348,1.83120,89,1,nan,107,1,3,14885,187491,0,0,0.000,5.857,79.776,0,0.000,16.715,14.438,0,0,1,0,7
PPG,1,88140,3527151552,126,75235,81180,80848.164,331.836,62.109,0,0,0,0,96.77,96.77,2,1,16,nan,4,1,24,1,1,12,12,0,0,0,3528283220,0.03906,0.00488,0.95093,0.95174,-0.00558,0.00105,-0.00167,0.00592,0.95430,0.00227,0.00598,3,12234,0,5851,0.14389,0.26348,1.83120,89,1,nan,107,1,3,2617,187491,0,0,0.000,5.857,79.776,0,0.000,16.715,14.438,0,0,1,0,7
PPG,1,88141,3527191552,131,75237,81163,80851.312,311.688,66.391,0,0,0,0,96.77,96.77,2,1,16,nan,4,1,24,1,1,13,13,0,0,0,3528319839,0.04517,0.00830,0.94653,0.94765,-0.00612,-0.00028,-0.00194,0.00642,0.95709,0.00944,0.00668,3,12253,0,5851,0.14389,0.26348,1.83120,89,1,nan,107,1,3,4341,187491,0,0,9.234,5.857,79.776,1,0.000,16.715,14.438,0,0,1,0,7
PPG,1,88142,3527231552,143,75233,81080,80853.602,226.398,58.602,0,0,0,0,96.77,96.77,2,1,16,nan,4,1,24,1,1,14,14,0,0,0,3528359220,0.03906,0.00806,0.95166,0.95250,-0.00558,0.00079,-0.00167,0.00588,0.95250,0.00280,0.00719,3,12229,0,5851,0.14389,0.26348,1.83120,89,1,nan,107,1,3,2627,187491,0,0,0.000,5.857,79.776,0,0.000,16.715,14.438,0,0,1,0,7
PPG,1,88143,3527271552,128,75208,81020,80855.266,164.734,39.961,0,0,0,0,96.77,96.77,2,1,16,nan,4,1,24,1,1,15,15,0,0,0,3528401088,0.04102,0.00806,0.94897,0.94989,-0.00585,0.00025,-0.00087,0.00592,0.95662,0.00859,0.00650,3,12238,0,5851,0.14389,0.26348,1.83120,89,1,nan,107,1,3,4335,187491,0,0,0.000,5.857,79.776,0,0.000,16.715,14.438,0,0,1,0,7
PPG,1,88144,3527311552,127,75193,81010,80856.812,153.188,20.414,0,0,0,0,96.77,96.77,2,1,16,nan,4,1,24,1,1,16,16,0,0,0,3528440308,0.03735,0.00537,0.95557,0.95631,-0.00505,-0.00081,-0.00300,0.00593,0.95631,0.00429,0.00645,3,12238,0,5851,0.14389,0.26348,1.83120,89,1,nan,107,1,3,4318,187491,0,0,0.000,5.857,79.776,0,0.000,16.715,14.438,0,0,1,0,7
PPG,1,88145,3527351552,133,75195,81031,80858.555,172.445,2.258,0,0,0,0,96.77,96.77,2,1,16,nan,4,1,24,1,1,17,17,0,0,0,3528479527,0.03979,0.00977,0.94897,0.94986,-0.00558,-0.00001,-0.00247,0.00611,0.95378,0.00392,0.00640,3,12196,0,5851,0.14389,0.26348,1.83120,89,1,nan,107,1,3,2598,187491,0,0,0.000,5.857,79.776,0,0.000,16.715,14.438,0,0,1,0,6
PPG,1,88146,3527391552,129,75203,81051,80860.477,190.523,-13.820,0,0,0,0,96.77,96.77,2,1,16,nan,4,1,24,1,1,18,18,0,0,0,3528521065,0.03979,0.00586,0.94751,0.94836,-0.00532,-0.00028,-0.00114,0.00545,0.95288,0.00452,0.00576,3,12119,0,5851,0.14389,0.26348,1.83120,89,1,nan,107,1,3,4305,187491,0,0,0.000,5.857,79.776,0,0.000,16.715,14.438,0,0,1,0,6
PPG,1,88147,3527431552,130,75193,81065,80862.523,202.477,-31.297,0,0,0,0,96.77,96.77,2,1,16,nan,4,1,24,1,1,19,19,0,0,0,3528560079,0.03979,0.00317,0.95728,0.95811,-0.00558,-0.00055,-0.00141,0.00578,0.95811,0.00770,0.00667,3,12192,0,5851,0.14389,0.26348,1.83120,89,1,nan,107,1,3,4307,187491,0,0,0.000,5.857,79.776,0,0.000,16.715,14.438,0,0,1,0,6
PPG,1,88148,3527471552,125,75211,81080,80864.695,215.305,-45.609,0,0,0,0,96.77,96.77,2,1,16,nan,4,1,24,1,1,20,20,0,0,0,3528598991,0.03979,0.00903,0.95532,0.95619,-0.00532,-0.00028,-0.00167,0.00558,0.95861,0.01470,0.00558,3,12114,0,5851,0.14389,0.26348,1.83120,89,1,nan,107,1,3,2599,187491,0,0,0.000,5.857,79.776,0,0.000,16.715,14.438,0,0,1,0,6
PPG,1,88149,3527511552,127,75197,81075,80866.797,208.203,-48.273,1,0,0,0,96.77,96.77,2,1,16,nan,4,1,24,1,1,21,21,0,0,0,3528640493,0.03906,0.00610,0.94971,0.95053,-0.00532,-0.00081,-0.00194,0.00572,0.95206,0.00414,0.00572,3,12116,0,5851,0.14389,0.26348,1.83120,89,1,nan,107,1,3,4298,187491,0,0,0.000,5.857,79.776,0,80.648,16.715,14.438,1,0,1,0,6
PPG,1,88150,3527551552,515,75201,81103,80869.156,233.844,-39.062,0,0,0,0,96.77,96.77,2,1,16,nan,4,1,24,1,1,22,22,0,0,0,3528679453,0.03857,0.00684,0.95605,0.95686,-0.00532,0.00025,-0.00114,0.00544,0.95785,0.00732,0.00730,3,12119,0,5851,0.14515,0.21651,1.49163,95,1,nan,125,1,3,2599,187491,0,0,0.000,5.857,79.776,0,0.000,16.715,14.438,0,0,1,0,6
PPG,1,88151,3527591552,176,75208,81115,80871.617,243.383,-25.711,0,0,0,0,96.77,96.77,2,1,16,nan,4,1,24,1,1,23,23,0,0,0,3528721478,0.03784,0.00513,0.94946,0.95023,-0.00612,0.00025,-0.00087,0.00618,0.95023,0.01030,0.00709,3,12118,0,5851,0.14515,0.21651,1.49163,95,1,nan,125,1,3,4298,187491,0,0,0.000,5.857,79.776,0,0.000,16.715,14.438,0,0,1,0,6
PPG,1,88152,3527631552,125,75229,81140,80874.305,265.695,-13.094,0,0,0,0,96.77,96.77,2,1,16,nan,4,1,24,1,1,24,24,0,0,0,3528760472,0.03784,0.00439,0.94458,0.94535,-0.00558,-0.00001,-0.00274,0.00622,0.95277,0.00742,0.00622,3,12131,0,5851,0.14515,0.21651,1.49163,95,1,nan,125,1,3,4299,187491,0,0,0.000,5.857,79.776,0,0.000,16.715,14.438,0,0,1,0,6
PPG,1,88153,3527671552,129,75218,81152,80877.078,274.922,-0.664,0,0,0,0,96.77,96.77,2,1,16,nan,4,1,24,1,1,25,25,0,0,0,3528799386,0.04175,0.00806,0.94775,0.94871,-0.00638,-0.00055,-0.00194,0.00669,0.95430,0.00895,0.00675,3,12115,0,5851,0.14515,0.21651,1.49163,95,1,nan,125,1,3,2595,187491,0,0,0.000,5.857,79.776,0,0.000,16.715,14.438,0,0,1,0,6
PPG,1,88154,3527711552,126,75223,81157,80879.875,277.125,10.883,0,0,0,0,96.77,96.77,2,1,16,nan,4,1,24,1,1,26,26,0,0,0,3528840906,0.04199,0.00659,0.95044,0.95139,-0.00638,0.00025,-0.00167,0.00660,0.96340,0.01202,0.00682,3,12121,0,5851,0.14515,0.21651,1.49163,95,1,nan,125,1,3,4300,187491,0,0,0.000,5.857,79.776,0,0.000,16.715,14.438,0,0,1,0,6
PPG,1,88155,3527751552,128,75211,81160,80882.680,277.320,21.211,0,0,0,0,96.77,96.77,2,1,16,nan,4,1,24,1,1,27,27,0,0,0,3528880264,0.03833,0.00757,0.94360,0.94441,-0.00585,-0.00028,-0.00221,0.00626,0.94988,0.00657,0.00634,3,12285,0,5851,0.14515,0.21651,1.49163,95,1,nan,125,1,3,4301,187491,0,0,0.000,5.857,79.776,0,0.000,16.715,14.438,0,0,1,0,6
PPG,1,88156,3527791552,126,75213,81152,80885.375,266.625,31.609,0,0,0,0,96.77,96.77,2,1,16,nan,4,1,24,1,1,28,28,0,0,0,3528919226,0.03979,0.00781,0.95483,0.95569,-0.00558,-0.00001,-0.00194,0.00591,0.95569,0.00781,0.00591,3,12172,0,5851,0.14515,0.21651,1.49163,95,1,nan,125,1,3,2601,187491,0,0,0.000,5.857,79.776,0,0.000,16.715,14.438,0,0,1,0,6
PPG,1,88157,3527831552,126,75215,81178,80888.305,289.695,39.922,0,0,0,0,96.77,96.77,2,1,16,nan,4,1,24,1,1,29,29,0,0,0,3528960775,0.03345,0.00684,0.95508,0.95569,-0.00612,-0.00001,-0.00007,0.00612,0.95654,0.00417,0.00695,3,12169,0,5851,0.14515,0.21651,1.49163,95,1,nan,125,1,3,4309,187491,0,0,0.000,5.857,79.776,0,0.000,16.715,14.438,0,0,1,0,6
PPG,1,88158,3527871552,192,75225,81184,80891.258,292.742,47.680,0,0,0,0,96.77,96.77,2,1,16,nan,4,1,24,1,1,30,30,0,0,0,3528999828,0.04150,0.00732,0.95068,0.95162,-0.00532,-0.00081,-0.00034,0.00539,0.95712,0.00690,0.00566,3,12117,0,5851,0.14515,0.21651,1.49163,95,1,nan,125,1,3,2598,187491,0,0,0.000,5.857,79.776,0,0.000,16.715,14.438,0,0,1,0,6
PPG,1,88159,3527911552,142,75238,81202,80894.367,307.633,54.391,0,0,0,0,96.77,96.77,2,1,16,nan,4,1,24,1,1,31,31,0,0,0,3529041588,0.04004,0.00830,0.94409,0.94498,-0.00638,-0.00081,-0.00007,0.00644,0.95419,0.00605,0.00644,3,12136,0,5851,0.14515,0.21651,1.49163,95,1,nan,125,1,3,4300,187491,0,0,0.000,5.857,79.776,0,0.000,16.715,14.438,0,0,1,0,6
PPG,1,88160,3527951552,125,75225,81214,80897.562,316.438,61.539,0,0,0,0,96.77,96.77,2,1,16,nan,4,1,24,1,1,0,0,0,0,0,3529081115,0.03638,0.00464,0.94580,0.94651,-0.00505,-0.00055,-0.00114,0.00521,0.95404,0.00753,0.00651,3,12266,0,5851,0.14515,0.21651,1.49163,95,1,nan,125,1,3,4344,187491,0,0,0.000,5.857,79.776,0,0.000,16.715,14.438,0,0,1,0,6
PPG,1,88161,3527991552,129,75253,81248,80901.070,346.930,70.289,0,0,0,0,96.77,96.77,2,1,16,nan,4,1,24,1,1,1,1,0,0,0,3529120535,0.03564,0.00806,0.94995,0.95065,-0.00505,-0.00001,-0.00194,0.00541,0.96239,0.01288,0.00568,3,12263,0,5851,0.14515,0.21651,1.49163,95,1,nan,125,1,3,4332,187491,0,0,0.000,5.857,79.776,0,0.000,16.715,14.438,0,0,1,0,6
PPG,1,88162,3528031552,128,75248,81246,80904.523,341.477,74.281,0,0,0,0,96.77,96.77,2,1,16,nan,4,1,24,1,1,2,2,0,0,0,3529159764,0.04004,0.00830,0.95703,0.95790,-0.00638,-0.00081,-0.00274,0.00699,0.95790,0.00731,0.00712,3,12243,0,5851,0.14515,0.21651,1.49163,95,1,nan,125,1,3,2671,187491,0,0,0.000,5.857,79.776,0,0.000,16.715,14.438,0,0,1,0,6
PPG,1,88163,3528071552,143,75232,81169,80907.172,261.828,69.258,0,0,0,0,96.77,96.77,2,1,16,nan,4,1,24,1,1,3,3,0,0,0,3529201738,0.04248,0.00391,0.95093,0.95188,-0.00665,-0.00055,-0.00167,0.00688,0.95438,0.00473,0.00688,3,12253,0,5851,0.14515,0.21651,1.49163,95,1,nan,125,1,3,4329,187491,0,0,0.000,5.857,79.776,0,0.000,16.715,14.438,0,0,1,0,6
PPG,1,88164,3528111552,139,75205,81107,80909.172,197.828,54.258,0,0,0,0,96.77,96.77,2,1,16,nan,4,1,24,1,1,4,4,0,0,0,3529247796,0.04224,0.00415,0.95532,0.95626,-0.00612,-0.00081,-0.00247,0.00665,0.95626,0.00699,0.00665,3,19041,0,5851,0.14515,0.21651,1.49163,95,1,nan,125,1,3,14628,187491,0,0,0.000,5.857,79.776,0,0.000,16.715,14.438,0,0,1,0,6
PPG,1,88165,3528151552,133,75206,81106,80911.141,194.859,39.367,0,0,0,0,96.77,96.77,2,1,16,nan,4,1,24,1,1,5,5,0,0,0,3529284568,0.04102,0.00684,0.95117,0.95208,-0.00505,-0.00055,-0.00167,0.00535,0.95267,0.00359,0.00659,3,12250,0,5851,0.14515,0.21651,1.49163,95,1,nan,125,1,3,2617,187491,0,0,0.000,5.857,79.776,0,0.000,16.715,14.438,0,0,1,0,6
PPG,1,88166,3528191552,143,75194,81137,80913.398,223.602,25.789,0,0,0,0,96.77,96.77,2,1,16,nan,4,1,24,1,1,6,6,0,0,0,3529321148,0.03906,0.00488,0.95508,0.95589,-0.00638,-0.00028,-0.00061,0.00642,0.95589,0.00221,0.00659,3,12225,0,5851,0.14515,0.21651,1.49163,95,1,nan,125,1,3,4339,187491,0,0,0.000,5.857,79.776,0,0.000,16.715,14.438,0,0,1,0,6
PPG,1,88167,3528231552,142,75200,81136,80915.625,220.375,11.094,0,0,0,0,96.77,96.77,2,1,16,nan,4,1,24,1,1,7,7,0,0,0,3529360492,0.04053,0.00293,0.95020,0.95106,-0.00638,-0.00055,-0.00194,0.00669,0.95746,0.00862,0.00669,3,12244,0,5851,0.14515,0.21651,1.49163,95,1,nan,125,1,3,4362,187491,0,0,0.000,5.857,79.776,0,0.000,16.715,14.438,0,0,1,0,6
PPG,1,88168,3528271552,127,75209,81160,80918.070,241.930,-5.477,0,0,0,0,96.77,96.77,2,1,16,nan,4,1,24,1,1,8,8,0,0,0,3529399849,0.04199,0.00732,0.95117,0.95213,-0.00532,-0.00001,0.00019,0.00532,0.95396,0.00727,0.00656,3,12190,0,5851,0.14515,0.21651,1.49163,95,1,nan,125,1,3,2653,187491,0,0,0.000,5.857,79.776,0,0.000,16.715,14.438,0,0,1,0,6
PPG,1,88169,3528311552,129,75189,81147,80920.359,226.641,-23.219,0,0,0,0,96.77,96.77,2,1,16,nan,4,1,24,1,1,9,9,0,0,0,3529441710,0.03955,0.01001,0.95752,0.95839,-0.00505,0.00025,-0.00114,0.00518,0.95839,0.00583,0.00518,3,12231,0,5851,0.14515,0.21651,1.49163,95,1,nan,125,1,3,4326,187491,0,0,0.000,5.857,79.776,0,0.000,16.715,14.438,0,0,1,0,6
PPG,1,88170,3528351552,139,75203,81162,80922.773,239.227,-27.172,1,0,0,0,96.77,96.77,2,1,16,nan,4,1,24,1,1,10,10,0,0,0,3529480989,0.04224,0.00684,0.95215,0.95311,-0.00665,-0.00108,-0.00194,0.00701,0.95458,0.00503,0.00701,3,12265,0,5851,0.14515,0.21651,1.49163,95,1,nan,125,1,3,4326,187491,0,0,0.000,5.857,79.776,0,122.555,16.715,14.438,1,0,1,0,6
PPG,1,88171,3528391552,138,75213,81173,80925.273,247.727,-20.641,0,0,1,0,0.00,nan,1,2,0,nan,4,1,24,1,1,11,11,0,0,0,3529520202,0.03955,0.00488,0.95288,0.95371,-0.00665,-0.00108,-0.00007,0.00674,0.95579,0.00515,0.00674,3,12228,0,5851,0.14515,0.21651,1.49163,95,1,nan,125,1,2,4313,187491,0,0,51.016,5.857,79.776,1,0.000,16.715,14.438,0,1,1,0,1
PPG,1,88172,3528431552,127,75214,81186,80927.883,258.117,-11.508,0,0,0,0,0.00,nan,1,2,0,nan,4,1,24,1,1,12,12,0,0,0,3529559422,0.03882,0.00562,0.95215,0.95296,-0.00665,-0.00081,-0.00114,0.00680,0.95816,0.01520,0.00680,3,12241,0,5851,0.14515,0.21651,1.49163,95,1,nan,125,1,2,2635,187491,0,0,0.000,5.585,75.181,0,0.000,16.579,14.165,0,0,1,0,1
PPG,1,88173,3528471552,121,75185,81172,80930.320,241.680,-7.508,0,0,0,0,0.00,nan,1,2,0,nan,4,1,24,1,1,13,13,0,0,0,3529601249,0.04102,0.00757,0.95020,0.95111,-0.00558,-0.00055,-0.00034,0.00562,0.95203,0.00093,0.00738,3,12242,0,5851,0.14515,0.21651,1.49163,95,1,nan,125,1,2,4336,187491,0,0,0.000,5.585,75.181,0,0.000,16.579,14.165,0,0,1,0,1
PPG,1,88174,3528511552,128,75165,81174,80932.758,241.242,-2.938,0,0,0,0,0.00,nan,1,2,0,nan,4,1,24,1,1,14,14,0,0,0,3529640421,0.04053,0.00659,0.95361,0.95450,-0.00585,0.00025,-0.00141,0.00602,0.95510,0.01070,0.00602,3,12245,0,5851,0.14515,0.21651,1.49163,95,1,nan,125,1,2,4332,187491,0,0,0.000,5.772,64.471,0,0.000,16.579,14.165,0,0,1,0,1
PPG,1,88175,3528551552,502,75164,81182,80935.250,246.750,-0.891,0,0,0,0,0.00,nan,1,2,0,nan,4,1,24,1,1,15,15,0,0,0,3529679624,0.03931,0.00610,0.95337,0.95420,-0.00612,-0.00055,-0.00141,0.00630,0.95933,0.01024,0.00656,3,12167,0,5851,0.16943,0.13480,0.79563,91,1,90.109,166,1,2,2604,187491,0,0,0.000,5.772,64.471,0,0.000,16.579,14.165,0,0,1,0,1
PPG,1,88176,3528591552,168,75170,81208,80937.977,270.023,5.023,0,0,0,0,0.00,nan,1,2,0,nan,4,1,24,1,1,16,16,0,0,0,3529721744,0.03662,0.00562,0.94604,0.94677,-0.00372,-0.00135,-0.00061,0.00400,0.95448,0.00745,0.00525,3,12130,0,5851,0.16943,0.13480,0.79563,91,1,90.109,166,1,2,4303,187491,0,0,0.000,5.772,64.471,0,0.000,16.579,14.165,0,0,1,0,1
PPG,1,88177,3528631552,120,75154,81190,80940.500,249.500,8.422,0,0,0,0,0.00,nan,1,2,0,nan,4,1,24,1,1,17,17,0,0,0,3529760694,0.03638,0.00513,0.94946,0.95017,-0.00718,-0.00055,-0.00141,0.00734,0.95452,0.00775,0.00734,3,12124,0,5851,0.16943,0.13480,0.79563,91,1,90.109,166,1,2,4305,187491,0,0,0.000,5.772,64.471,0,0.000,16.579,14.165,0,0,1,0,1
PPG,1,88178,3528671552,118,75146,81197,80943.062,253.938,11.203,0,0,0,0,0.00,nan,1,2,0,nan,4,1,24,1,1,18,18,0,0,0,3529799675,0.03882,0.00586,0.95068,0.95149,-0.00532,-0.00108,-0.00087,0.00550,0.95310,0.00978,0.00663,3,12146,0,5851,0.16943,0.13480,0.79563,91,1,90.109,166,1,2,2629,187491,0,0,0.000,5.772,64.471,0,0.000,16.579,14.165,0,0,1,0,1
PPG,1,88179,3528711552,131,75141,81200,80945.633,254.367,13.297,0,0,0,0,0.00,nan,1,2,0,nan,4,1,24,1,1,19,19,0,0,0,3529879353,0.03760,0.00610,0.95459,0.95535,-0.00505,-0.00108,0.00046,0.00519,0.95535,0.00790,0.00639,2,62355,0,5856,0.16943,0.13480,0.79563,91,1,90.109,166,1,2,57910,187491,0,0,0.000,5.772,64.471,0,0.000,16.579,14.165,0,0,1,0,1
PPG,1,88180,3528751552,115,75156,81225,80948.430,276.570,20.320,0,0,0,0,0.00,nan,1,2,0,nan,4,1,24,1,1,20,20,0,0,0,3529891523,0.03564,0.00708,0.95093,0.95162,-0.00638,-0.00108,0.00019,0.00648,0.95162,0.00373,0.00648,1,12170,0,5856,0.16943,0.13480,0.79563,91,1,90.109,166,1,2,12095,187491,0,0,0.000,5.772,64.471,0,0.000,16.579,14.165,0,0,1,0,1
PPG,1,88181,3528791552,119,75143,81233,80951.273,281.727,29.500,0,0,0,0,0.00,nan,1,2,0,nan,4,1,24,1,1,21,21,0,0,0,3529915739,0.03979,0.01025,0.94678,0.94767,-0.00558,-0.00081,-0.00167,0.00589,0.94990,0.00223,0.00675,2,12172,0,5856,0.16943,0.13480,0.79563,91,1,90.109,166,1,2,2595,187491,0,0,0.000,5.772,64.471,0,0.000,16.579,14.165,0,0,1,0,1
PPG,1,88182,3528831552,117,75138,81194,80953.703,240.297,33.812,0,0,0,0,0.00,nan,1,2,0,nan,4,1,24,1,1,22,22,0,0,0,3529959846,0.03613,0.00293,0.95044,0.95113,-0.00505,-0.00081,-0.00087,0.00519,0.96025,0.01140,0.00582,3,12124,0,5856,0.16943,0.13480,0.79563,91,1,90.109,166,1,2,2597,187491,0,0,0.000,5.772,64.471,0,0.000,16.579,14.165,0,0,1,0,1
PPG,1,88183,3528871552,134,75124,81205,80956.219,248.781,31.586,0,0,0,0,0.00,nan,1,2,0,nan,4,1,24,1,1,23,23,0,0,0,3530001433,0.04053,0.00952,0.95020,0.95111,-0.00638,-0.00055,-0.00194,0.00669,0.95193,0.00231,0.00669,3,12113,0,5856,0.16943,0.13480,0.79563,91,1,90.109,166,1,2,4304,187491,0,0,0.000,6.034,53.753,0,0.000,16.579,14.165,0,0,1,0,1
PPG,1,88184,3528911552,117,75133,81226,80958.914,267.086,30.781,0,0,0,0,0.00,nan,1,2,0,nan,4,1,24,1,1,24,24,0,0,0,3530040368,0.04321,0.00415,0.94995,0.95094,-0.00532,0.00079,-0.00221,0.00581,0.95347,0.00288,0.00597,3,12120,0,5856,0.16943,0.13480,0.79563,91,1,90.109,166,1,2,4305,187491,0,0,0.000,6.034,53.753,0,0.000,16.579,14.165,0,0,1,0,1
PPG,1,88185,3528951552,128,75105,81148,80960.805,187.195,21.680,0,0,0,0,0.00,nan,1,2,0,nan,4,1,24,1,1,25,25,0,0,0,3530079269,0.03735,0.00464,0.95117,0.95192,-0.00452,0.00025,-0.00221,0.00503,0.95192,0.00144,0.00503,3,12128,0,5856,0.16943,0.13480,0.79563,91,1,90.109,166,1,2,2629,187491,0,0,0.000,5.952,56.699,0,0.000,16.579,14.165,0,0,1,0,1
PPG,1,88186,3528991552,117,75072,81069,80961.883,107.117,6.359,0,0,0,0,0.00,nan,1,2,0,nan,4,1,24,1,1,26,26,0,0,0,3530120835,0.03955,0.00513,0.94946,0.95030,-0.00612,0.00025,-0.00087,0.00618,0.95469,0.00315,0.00618,3,12124,0,5856,0.16943,0.13480,0.79563,91,1,90.109,166,1,2,4314,187491,0,0,0.000,5.952,56.699,0,0.000,16.579,14.165,0,0,1,0,1
PPG,1,88187,3529031552,119,75102,81047,80962.734,84.266,-14.609,0,0,0,0,0.00,nan,1,2,0,nan,4,1,24,1,1,27,27,0,0,0,3530159741,0.03955,0.00879,0.95044,0.95130,-0.00612,-0.00161,-0.00114,0.00643,0.96100,0.01574,0.00645,3,12123,0,5856,0.16943,0.13480,0.79563,91,1,90.109,166,1,2,2610,187491,0,0,0.000,5.952,56.699,0,0.000,16.579,14.165,0,0,1,0,1
PPG,1,88188,3529071552,117,75123,81111,80964.219,146.781,-29.594,0,0,0,0,0.00,nan,1,2,0,nan,4,1,24,1,1,28,28,0,0,0,3530201306,0.04004,0.00708,0.95044,0.95131,-0.00585,-0.00188,-0.00167,0.00637,0.95857,0.00726,0.00637,3,12130,0,5856,0.16943,0.13480,0.79563,91,1,90.109,166,1,2,4324,187491,0,0,0.000,5.952,56.699,0,0.000,16.579,14.165,0,0,1,0,1
PPG,1,88189,3529111552,123,75113,81135,80965.930,169.070,-37.422,0,0,0,0,0.00,nan,1,2,0,nan,4,1,24,1,1,29,29,0,0,0,3530249539,0.03882,0.00562,0.95093,0.95174,-0.00505,-0.00081,-0.00141,0.00531,0.95651,0.00520,0.00625,3,21428,0,5857,0.16943,0.13480,0.79563,91,1,90.109,166,1,2,14458,187491,0,0,0.000,5.952,56.699,0,0.000,16.579,14.165,0,0,1,0,1
PPG,1,88190,3529151552,116,75118,81146,80967.727,178.273,-45.047,1,0,0,0,0.00,nan,1,2,0,nan,4,1,24,1,1,30,30,0,0,0,3530285948,0.03711,0.00610,0.94995,0.95070,-0.00692,-0.00161,-0.00087,0.00716,0.95070,0.00122,0.00716,3,12144,0,5857,0.16943,0.13480,0.79563,91,1,90.109,166,1,2,2620,187491,0,0,0.000,5.952,56.699,0,60.984,16.579,14.165,1,0,1,0,1
PPG,1,88191,3529191552,118,75157,81190,80969.953,220.047,-51.039,0,0,0,0,0.00,nan,1,2,0,nan,4,1,24,1,1,31,31,0,0,0,3530322264,0.03809,0.00732,0.95337,0.95416,-0.00558,-0.00081,-0.00194,0.00597,0.95475,0.00724,0.00685,3,12123,0,5857,0.16943,0.13480,0.79563,91,1,90.109,166,1,2,4312,187491,0,0,0.000,5.952,56.699,0,0.000,16.579,14.165,0,0,1,0,1
PPG,1,88192,3529231552,116,75164,81194,80972.195,221.805,-44.867,0,0,0,0,0.00,nan,1,2,0,nan,4,1,24,1,1,0,0,0,0,0,3530361156,0.03857,0.00854,0.94971,0.95053,-0.00665,-0.00081,-0.00061,0.00673,0.95418,0.00645,0.00673,3,12110,0,5857,0.16943,0.13480,0.79563,91,1,90.109,166,1,2,4305,187491,0,0,0.000,5.952,56.699,0,0.000,16.579,14.165,0,0,1,0,1
PPG,1,88193,3529271552,118,75150,81176,80974.234,201.766,-29.789,0,0,0,0,0.00,nan,1,2,0,nan,4,1,24,1,1,1,1,0,0,0,3530400101,0.04077,0.00708,0.95313,0.95402,-0.00638,-0.00188,-0.00114,0.00675,0.95402,0.00503,0.00675,3,12156,0,5857,0.16943,0.13480,0.79563,91,1,90.109,166,1,2,2596,187491,0,0,0.000,5.952,56.699,0,0.000,16.579,14.165,0,0,1,0,1
PPG,1,88194,3529311552,118,75146,81179,80976.281,202.719,-11.180,0,0,0,0,0.00,nan,1,2,0,nan,4,1,24,1,1,2,2,0,0,0,3530441595,0.04224,0.00488,0.95190,0.95285,-0.00638,-0.00215,-0.00061,0.00676,0.95566,0.00562,0.00734,3,12120,0,5857,0.16943,0.13480,0.79563,91,1,90.109,166,1,2,4301,187491,0,0,0.000,5.952,56.699,0,0.000,16.579,14.165,0,0,1,0,1
PPG,1,88195,3529351552,119,75133,81172,80978.242,193.758,-1.961,0,0,0,0,0.00,nan,1,2,0,nan,4,1,24,1,1,3,3,0,0,0,3530480476,0.03955,0.00317,0.94873,0.94956,-0.00612,-0.00108,-0.00114,0.00632,0.95479,0.00452,0.00639,3,12113,0,5857,0.16943,0.13480,0.79563,91,1,90.109,166,1,2,4297,187491,0,0,0.000,5.952,56.699,0,0.000,16.579,14.165,0,0,1,0,1
PPG,1,88196,3529391552,116,75135,81201,80980.469,220.531,7.812,0,0,0,0,0.00,nan,1,2,0,nan,4,1,24,1,1,4,4,0,0,0,3530519413,0.03979,0.00122,0.95337,0.95420,-0.00505,-0.00028,-0.00114,0.00519,0.95909,0.00953,0.00601,3,12121,0,5857,0.16943,0.13480,0.79563,91,1,90.109,166,1,2,2596,187491,0,0,0.000,5.952,56.699,0,0.000,16.579,14.165,0,0,1,0,1
PPG,1,88197,3529431552,119,75128,81220,80982.867,237.133,16.891,0,0,0,0,0.00,nan,1,2,0,nan,4,1,24,1,1,5,5,0,0,0,3530560941,0.04102,0.00562,0.95117,0.95207,-0.00665,-0.00055,-0.00114,0.00677,0.95760,0.00786,0.00699,3,12118,0,5857,0.16943,0.13480,0.79563,91,1,90.109,166,1,2,4303,187491,0,0,0.000,5.952,56.699,0,0.000,16.579,14.165,0,0,1,0,1
PPG,1,88198,3529471552,126,75143,81206,80985.102,220.898,18.719,0,0,0,0,0.00,nan,1,2,0,nan,4,1,24,1,1,6,6,0,0,0,3530599929,0.04126,0.00879,0.94385,0.94479,-0.00612,-0.00001,-0.00141,0.00628,0.94935,0.00417,0.00661,3,12191,0,5857,0.16943,0.13480,0.79563,91,1,90.109,166,1,2,2595,187491,0,0,0.000,5.952,56.699,0,0.000,16.579,14.165,0,0,1,0,1
PPG,1,88199,3529511552,118,75141,81242,80987.672,254.328,23.477,0,0,0,0,0.00,nan,1,2,0,nan,4,1,24,1,1,7,7,0,0,0,3530641430,0.04126,0.00293,0.94678,0.94768,-0.00585,-0.00028,-0.00167,0.00609,0.95717,0.01238,0.00644,3,12121,0,5857,0.16943,0.13480,0.79563,91,1,90.109,166,1,2,4302,187491,0,0,0.000,5.952,56.699,0,0.000,16.579,14.165,0,0,1,0,1
PPG,1,88200,3529551552,494,75124,81224,80990.031,233.969,30.391,0,0,0,0,0.00,nan,1,2,0,nan,4,1,24,1,1,8,8,0,0,0,3530680362,0.03906,0.00732,0.95557,0.95639,-0.00665,0.00079,-0.00034,0.00671,0.95639,0.00494,0.00671,3,12123,0,5857,0.15162,0.07689,0.50715,68,1,97.321,75,1,2,4309,187491,0,0,0.000,5.952,56.699,0,0.000,16.579,14.165,0,0,1,0,1
PPG,1,88201,3529591552,168,75107,81236,80992.492,243.508,38.383,0,0,0,0,0.00,nan,1,2,0,nan,4,1,24,1,1,9,9,0,0,0,3530719699,0.04053,0.00903,0.95190,0.95281,-0.00558,-0.00055,-0.00141,0.00578,0.95281,0.00772,0.00578,3,12126,0,5857,0.15162,0.07689,0.50715,68,1,97.321,75,1,2,2621,187491,0,0,0.000,5.952,56.699,0,0.000,16.579,14.165,0,0,1,0,1
PPG,1,88202,3529631552,118,75124,81254,80995.109,258.891,47.094,0,1,0,0,0.00,nan,1,2,0,nan,4,1,24,1,1,10,10,0,0,0,3530761264,0.03857,0.00952,0.95020,0.95103,-0.00452,-0.00028,-0.00141,0.00474,0.95458,0.00575,0.00618,3,12125,0,5857,0.15162,0.07689,0.50715,68,1,97.321,75,1,2,4322,187491,0,0,0.000,5.952,56.699,0,0.000,16.579,14.165,0,0,1,0,1
PPG,1,88203,3529671552,180,75109,81241,80997.570,243.430,51.008,0,0,0,0,0.00,nan,1,2,0,nan,4,1,24,1,1,11,11,0,0,0,3530800183,0.03711,0.00659,0.94922,0.94997,-0.00665,-0.00028,-0.00194,0.00693,0.95673,0.00894,0.00693,3,12129,0,5857,0.15162,0.07689,0.50715,68,1,97.321,75,1,2,4336,187491,0,0,0.000,5.952,56.699,0,0.000,16.579,14.165,0,0,1,0,1
PPG,1,88204,3529711552,116,75109,81241,81000.008,240.992,53.258,0,0,0,0,0.00,nan,1,2,0,nan,4,1,24,1,1,12,12,0,0,0,3530839566,0.04395,0.00781,0.95483,0.95588,-0.00532,-0.00135,-0.00141,0.00566,0.95588,0.00895,0.00668,3,12124,0,5857,0.15162,0.07689,0.50715,68,1,97.321,75,1,2,2597,187491,0,0,0.000,5.952,56.699,0,0.000,16.579,14.165,0,0,1,0,1
PPG,1,88205,3529751552,119,75116,81263,81002.641,260.359,55.648,0,0,0,0,0.00,nan,1,2,0,nan,4,1,24,1,1,13,13,0,0,0,3530881136,0.04102,0.00439,0.95190,0.95280,-0.00585,0.00025,-0.00114,0.00597,0.96200,0.01320,0.00597,3,12113,0,5857,0.15162,0.07689,0.50715,68,1,97.321,75,1,2,4299,187491,0,0,52.945,5.952,56.699,1,0.000,16.579,14.165,0,0,1,0,1
PPG,1,88206,3529791552,199,75140,81301,81005.625,295.375,52.477,0,0,0,0,0.00,nan,1,2,0,nan,4,1,24,1,1,14,14,0,0,0,3530920140,0.03931,0.00659,0.95581,0.95664,-0.00585,-0.00081,-0.00087,0.00597,0.95664,0.00362,0.00673,3,12164,0,5857,0.15162,0.07689,0.50715,68,1,97.321,75,1,2,2595,187491,0,0,0.000,5.952,56.699,0,0.000,16.579,14.165,0,0,1,0,1
PPG,1,88207,3529831552,118,75141,81318,81008.750,309.250,52.359,0,0,0,0,0.00,nan,1,2,0,nan,4,1,24,1,1,15,15,0,0,0,3530961874,0.03931,0.00879,0.95044,0.95129,-0.00532,-0.00028,-0.00087,0.00540,0.95375,0.00600,0.00644,3,12155,0,5857,0.15162,0.07689,0.50715,68,1,97.321,75,1,2,4353,187491,0,0,0.000,5.952,56.699,0,0.000,16.579,14.165,0,0,1,0,1
PPG,1,88208,3529871552,151,75140,81265,81011.312,253.688,48.797,0,0,0,0,0.00,nan,1,2,0,nan,4,1,24,1,1,16,16,0,0,0,3531000922,0.04077,0.00635,0.95898,0.95987,-0.00638,0.00025,-0.00141,0.00654,0.95987,0.01033,0.00654,3,12178,0,5857,0.15162,0.07689,0.50715,68,1,97.321,75,1,2,4306,187491,0,0,0.000,5.952,56.699,0,0.000,16.579,14.165,0,0,1,0,1
PPG,1,88209,3529911552,124,75139,81234,81013.539,220.461,40.992,0,0,0,0,0.00,nan,1,2,0,nan,4,1,24,1,1,17,17,0,0,0,3531040271,0.03906,0.00659,0.95605,0.95688,-0.00585,-0.00001,-0.00061,0.00588,0.95688,0.00608,0.00654,3,12257,0,5857,0.15162,0.07689,0.50715,68,1,97.321,75,1,2,4342,187491,0,0,0.000,5.952,56.699,0,0.000,16.579,14.165,0,0,1,0,1
PPG,1,88210,3529951552,118,75164,81267,81016.070,250.930,38.656,0,0,0,0,0.00,nan,1,2,0,nan,4,1,24,1,1,18,18,0,0,0,3531079532,0.04150,0.00513,0.95239,0.95331,-0.00558,-0.00055,-0.00194,0.00594,0.95331,0.00622,0.00646,3,12244,0,5857,0.15162,0.07689,0.50715,68,1,97.321,75,1,2,2628,187491,0,0,0.000,5.952,56.699,0,0.000,16.579,14.165,0,0,1,0,1
PPG,1,88211,3529991552,120,75159,81273,81018.641,254.359,39.078,0,0,0,0,0.00,nan,1,2,0,nan,4,1,24,1,1,19,19,0,0,0,3531121407,0.04028,0.00879,0.94336,0.94426,-0.00638,-0.00055,-0.00114,0.00651,0.95291,0.00865,0.00760,3,12251,0,5857,0.15162,0.07689,0.50715,68,1,97.321,75,1,2,4348,187491,0,0,0.000,5.952,56.699,0,0.000,16.579,14.165,0,0,1,0,1
PPG,1,88212,3530031552,127,75157,81293,81021.383,271.617,38.414,0,0,0,0,0.00,nan,1,2,0,nan,4,1,24,1,1,20,20,0,0,0,3531160736,0.04224,0.00586,0.95068,0.95164,-0.00585,0.00025,-0.00221,0.00626,0.95521,0.01051,0.00626,3,12274,0,5857,0.15162,0.07689,0.50715,68,1,97.321,75,1,2,4335,187491,0,0,0.000,5.952,56.699,0,0.000,15.692,15.624,0,0,1,0,1
PPG,1,88213,3530071552,120,75170,81315,81024.320,290.680,33.461,1,0,0,0,0.00,nan,1,2,0,nan,4,1,24,1,1,21,21,0,0,0,3531199966,0.03784,0.00439,0.95142,0.95218,-0.00612,-0.00135,-0.00061,0.00629,0.95657,0.00439,0.00633,3,12253,0,5857,0.15162,0.07689,0.50715,68,1,97.321,75,1,2,2649,187491,0,0,0.000,5.952,56.699,0,106.688,15.692,15.624,1,0,1,0,1
PPG,1,88214,3530111552,125,75171,81322,81027.297,294.703,26.891,0,0,0,0,0.00,nan,1,2,0,nan,4,1,24,1,1,22,22,0,0,0,3531251335,0.03760,0.00439,0.94922,0.94997,-0.00638,-0.00028,-0.00167,0.00661,0.95439,0.00442,0.00661,3,21644,0,5858,0.15162,0.07689,0.50715,68,1,97.321,75,1,2,14592,187491,0,0,0.000,5.952,56.699,0,0.000,15.692,15.624,0,0,1,0,1
PPG,1,88215,3530151552,147,75170,81324,81030.266,293.734,27.711,0,0,0,0,0.00,nan,1,2,0,nan,4,1,24,1,1,23,23,0,0,0,3531275804,0.03784,0.00879,0.95142,0.95221,-0.00585,-0.00028,-0.00114,0.00597,0.95317,0.00320,0.00597,2,12301,0,5858,0.15162,0.07689,0.50715,68,1,97.321,75,1,2,2627,187491,0,0,0.000,5.952,56.699,0,0.000,15.692,15.624,0,0,1,0,1
PPG,1,88216,3530191552,135,75154,81325,81033.211,291.789,34.508,0,0,0,0,0.00,nan,1,2,0,nan,4,1,24,1,1,24,24,0,0,0,3531320413,0.04126,0.00781,0.95117,0.95210,-0.00638,-0.00001,-0.00114,0.00648,0.95210,0.00216,0.00648,3,12297,0,5858,0.15162,0.07689,0.50715,68,1,97.321,75,1,2,4341,187491,0,0,0.000,5.952,56.699,0,0.000,15.692,15.624,0,0,1,0,1
PPG,1,88217,3530231552,132,75156,81332,81036.195,295.805,38.203,0,0,0,0,0.00,nan,1,2,0,nan,4,1,24,1,1,25,25,0,0,0,3531359622,0.04102,0.00781,0.95630,0.95721,-0.00452,-0.00055,-0.00194,0.00495,0.95721,0.00690,0.00676,3,12194,0,5858,0.15162,0.07689,0.50715,68,1,97.321,75,1,2,2669,187491,0,0,0.000,5.952,56.699,0,0.000,15.692,15.624,0,0,1,0,1
PPG,1,88218,3530271552,120,75168,81328,81039.117,288.883,39.961,0,0,0,0,0.00,nan,1,2,0,nan,4,1,24,1,1,26,26,0,0,0,3531401533,0.04199,0.00537,0.95215,0.95309,-0.00638,-0.00055,-0.00141,0.00656,0.95309,0.00417,0.00687,3,12258,0,5858,0.15162,0.07689,0.50715,68,1,97.321,75,1,2,4330,187491,0,0,0.000,5.952,56.699,0,0.000,15.692,15.624,0,0,1,0,1
PPG,1,88219,3530311552,120,75175,81351,81042.234,308.766,42.789,0,0,0,0,0.00,nan,1,2,0,nan,4,1,24,1,1,27,27,0,0,0,3531440771,0.04126,0.00928,0.94702,0.94797,-0.00612,-0.00001,-0.00221,0.00650,0.95855,0.00870,0.00650,3,12238,0,5858,0.15162,0.07689,0.50715,68,1,97.321,75,1,2,4335,187491,0,0,0.000,5.952,56.699,0,0.000,15.692,15.624,0,0,1,0,1
PPG,1,88220,3530351552,130,75176,81367,81045.484,321.516,43.070,0,0,0,0,0.00,nan,1,2,0,nan,4,1,24,1,1,28,28,0,0,0,3531479941,0.04102,0.00635,0.95068,0.95159,-0.00612,-0.00055,-0.00141,0.00630,0.95755,0.00596,0.00630,3,12213,0,5858,0.15162,0.07689,0.50715,68,1,97.321,75,1,2,2618,187491,0,0,0.000,5.969,56.067,0,0.000,15.692,15.624,0,0,1,0,1
PPG,1,88221,3530391552,124,75179,81388,81048.906,339.094,44.898,0,0,0,0,0.00,nan,1,2,0,nan,4,1,24,1,1,29,29,0,0,0,3531521792,0.04224,0.00586,0.95239,0.95335,-0.00585,-0.00028,-0.00167,0.00609,0.95342,0.00305,0.00655,3,12260,0,5858,0.15162,0.07689,0.50715,68,1,97.321,75,1,2,4346,187491,0,0,0.000,5.969,56.067,0,0.000,15.692,15.624,0,0,1,0,1
PPG,1,88222,3530431552,128,75183,81394,81052.359,341.641,47.898,0,0,0,0,0.00,nan,1,2,0,nan,4,1,24,1,1,30,30,0,0,0,3531561042,0.03857,0.00464,0.95630,0.95709,-0.00612,0.00025,-0.00194,0.00642,0.95709,0.00183,0.00719,3,12251,0,5858,0.15162,0.07689,0.50715,68,1,97.321,75,1,2,4342,187491,0,0,0.000,5.969,56.067,0,0.000,15.692,15.624,0,0,1,0,1
PPG,1,88223,3530471552,121,75184,81407,81055.906,351.094,51.312,0,0,0,0,0.00,nan,1,2,0,nan,4,1,24,1,1,31,31,0,0,0,3531600260,0.03955,0.00635,0.95654,0.95738,-0.00505,0.00079,-0.00034,0.00512,0.95738,0.00472,0.00676,3,12245,0,5858,0.15162,0.07689,0.50715,68,1,97.321,75,1,2,2630,187491,0,0,0.000,5.969,56.067,0,0.000,15.692,15.624,0,0,1,0,1
PPG,1,88224,3530511552,131,75176,81406,81059.406,346.594,53.641,0,0,0,0,0.00,nan,1,2,0,nan,4,1,24,1,1,0,0,0,0,0,3531642159,0.03857,0.00903,0.95581,0.95663,-0.00638,-0.00028,-0.00247,0.00685,0.95663,0.00804,0.00685,3,12119,0,5858,0.15162,0.07689,0.50715,68,1,97.321,75,1,2,4309,187491,0,0,33.945,5.869,60.035,1,0.000,15.692,15.624,0,0,1,0,1
PPG,1,88225,3530551552,500,75180,81413,81062.945,350.055,58.281,0,0,0,0,0.00,nan,1,2,0,nan,4,1,24,1,1,1,1,0,0,0,3531681252,0.04077,0.00684,0.94775,0.94866,-0.00558,-0.00001,-0.00167,0.00583,0.95303,0.00601,0.00660,3,12115,0,5858,0.11658,0.06557,0.56240,98,1,95.940,71,1,2,4295,187491,0,0,0.000,5.869,60.035,0,0.000,15.692,15.624,0,0,1,0,1
PPG,1,88226,3530591552,168,75196,81437,81066.688,370.312,63.758,0,0,0,0,0.00,nan,1,2,0,nan,4,1,24,1,1,2,2,0,0,0,3531720628,0.03955,0.00586,0.95386,0.95469,-0.00585,-0.00028,-0.00221,0.00626,0.95837,0.00799,0.00712,3,12132,0,5858,0.11658,0.06557,0.56240,98,1,95.940,71,1,2,4323,187491,0,0,0.000,5.869,60.035,0,0.000,15.692,15.624,0,0,1,0,1
PPG,1,88227,3530631552,127,75187,81444,81070.461,373.539,68.461,0,0,0,0,0.00,nan,1,2,0,nan,4,1,24,1,1,3,3,0,0,0,3531759741,0.03735,0.00830,0.95410,0.95487,-0.00638,-0.00001,-0.00141,0.00654,0.95616,0.00805,0.00654,3,12144,0,5858,0.11658,0.06557,0.56240,98,1,95.940,71,1,2,2602,187491,0,0,0.000,5.798,63.232,0,0.000,15.692,15.624,0,0,1,0,1
PPG,1,88228,3530671552,128,75199,81429,81074.047,354.953,66.117,0,0,0,0,0.00,nan,1,2,0,nan,4,1,24,1,1,4,4,0,0,0,3531801239,0.04248,0.00537,0.94482,0.94579,-0.00505,-0.00028,-0.00141,0.00525,0.95275,0.00695,0.00591,3,12119,0,5858,0.11658,0.06557,0.56240,98,1,95.940,71,1,2,4294,187491,0,0,0.000,5.798,63.232,0,0.000,15.692,15.624,0,0,1,0,1
PPG,1,88229,3530711552,117,75151,81328,81076.586,251.414,51.992,0,0,0,0,0.00,nan,1,2,0,nan,4,1,24,1,1,5,5,0,0,0,3531840175,0.04028,0.00464,0.95264,0.95350,-0.00532,-0.00001,-0.00141,0.00550,0.95350,0.00919,0.00662,3,12119,0,5858,0.11658,0.06557,0.56240,98,1,95.940,71,1,2,2618,187491,0,0,0.000,5.798,63.232,0,0.000,15.692,15.624,0,0,1,0,1
PPG,1,88230,3530751552,117,75140,81291,81078.727,212.273,34.219,0,0,0,0,0.00,nan,1,2,0,nan,4,1,24,1,1,6,6,0,0,0,3531881701,0.03882,0.00708,0.94678,0.94760,-0.00505,-0.00001,-0.00247,0.00562,0.95086,0.00396,0.00562,3,12126,0,5858,0.11658,0.06557,0.56240,98,1,95.940,71,1,2,4300,187491,0,0,0.000,5.798,63.232,0,0.000,15.692,15.624,0,0,1,0,1
PPG,1,88231,3530791552,118,75142,81297,81080.906,216.094,17.453,0,0,0,0,0.00,nan,1,2,0,nan,4,1,24,1,1,7,7,0,0,0,3531920593,0.04126,0.00781,0.94702,0.94795,-0.00638,-0.00028,-0.00221,0.00676,0.95036,0.00508,0.00676,3,12117,0,5858,0.11658,0.06557,0.56240,98,1,95.940,71,1,2,4325,187491,0,0,0.000,5.798,63.232,0,0.000,15.692,15.624,0,0,1,0,1
PPG,1,88232,3530831552,117,75170,81349,81083.586,265.414,5.508,0,0,0,0,0.00,nan,1,2,0,nan,4,1,24,1,1,8,8,0,0,0,3531959574,0.04224,0.00659,0.95068,0.95164,-0.00612,0.00025,-0.00141,0.00628,0.95682,0.00887,0.00685,3,12118,0,5858,0.11658,0.06557,0.56240,98,1,95.940,71,1,2,2602,187491,0,0,0.000,5.798,63.232,0,0.000,15.692,15.624,0,0,1,0,1
PPG,1,88233,3530871552,120,75157,81366,81086.406,279.594,-7.188,0,0,0,0,0.00,nan,1,2,0,nan,4,1,24,1,1,9,9,0,0,0,3532001066,0.04272,0.00513,0.95239,0.95336,-0.00532,0.00079,-0.00221,0.00581,0.95640,0.00513,0.00642,3,12128,0,5858,0.11658,0.06557,0.56240,98,1,95.940,71,1,2,4303,187491,0,0,0.000,5.798,63.232,0,0.000,15.692,15.624,0,0,1,0,1
PPG,1,88234,3530911552,118,75190,81409,81089.633,319.367,-16.539,0,0,0,0,0.00,nan,1,2,0,nan,4,1,24,1,1,10,10,0,0,0,3532040058,0.03882,0.00366,0.94897,0.94978,-0.00399,-0.00161,-0.00194,0.00472,0.95096,0.00240,0.00617,3,12159,0,5858,0.11658,0.06557,0.56240,98,1,95.940,71,1,2,2601,187491,0,0,0.000,5.798,63.232,0,0.000,15.692,15.624,0,0,1,0,1
PPG,1,88235,3530951552,118,75203,81420,81092.938,327.062,-22.617,1,0,0,0,0.00,nan,1,2,0,nan,4,1,24,1,1,11,11,0,0,0,3532081549,0.03711,0.00513,0.95215,0.95289,-0.00585,0.00025,-0.00194,0.00617,0.95433,0.00455,0.00617,3,12109,0,5858,0.11658,0.06557,0.56240,98,1,95.940,71,1,2,4295,187491,0,0,0.000,5.798,63.232,0,41.570,15.692,15.624,1,0,1,0,1
PPG,1,88236,3530991552,120,75194,81432,81096.328,335.672,-13.109,0,0,0,0,0.00,nan,1,2,0,nan,4,1,24,1,1,12,12,0,0,0,3532120530,0.03979,0.00732,0.94678,0.94764,-0.00505,-0.00055,-0.00194,0.00544,0.95055,0.00566,0.00578,3,12111,0,5858,0.11658,0.06557,0.56240,98,1,95.940,71,1,2,4300,187491,0,0,0.000,5.798,63.232,0,0.000,15.692,15.624,0,0,1,0,1
PPG,1,88237,3531031552,118,75201,81426,81099.625,326.375,1.469,0,0,0,0,0.00,nan,1,2,0,nan,4,1,24,1,1,13,13,0,0,0,3532159808,0.04175,0.01050,0.94849,0.94946,-0.00585,-0.00001,-0.00061,0.00588,0.95518,0.00572,0.00599,3,12268,0,5858,0.11658,0.06557,0.56240,98,1,95.940,71,1,2,2597,187491,0,0,0.000,5.798,63.232,0,0.000,15.692,15.624,0,0,1,0,1
PPG,1,88238,3531071552,119,75223,81447,81103.102,343.898,16.953,0,0,0,0,0.00,nan,1,2,0,nan,4,1,24,1,1,14,14,0,0,0,3532201344,0.03809,0.00391,0.94800,0.94877,-0.00532,-0.00028,-0.00194,0.00567,0.95340,0.00463,0.00578,3,12109,0,5858,0.11658,0.06557,0.56240,98,1,95.940,71,1,2,4301,187491,0,0,0.000,5.798,63.232,0,0.000,15.692,15.624,0,0,1,0,1
PPG,1,88239,3531111552,149,75218,81457,81106.641,350.359,27.078,0,0,0,0,0.00,nan,1,2,512,nan,4,1,24,1,1,15,15,0,0,0,3532252220,0.04199,0.00562,0.95361,0.95455,-0.00558,-0.00108,-0.00167,0.00593,0.96133,0.00677,0.00732,3,24104,0,5859,0.11658,0.06557,0.56240,98,1,95.940,71,1,2,14504,187491,0,0,0.000,5.798,63.232,0,0.000,15.692,15.624,0,0,1,0,1
PPG,1,88240,3531151552,189,75204,81445,81110.023,334.977,34.461,0,0,0,0,0.00,nan,1,2,512,nan,4,1,24,1,1,16,16,0,0,0,3532276592,0.04053,0.00757,0.95117,0.95207,-0.00558,-0.00241,-0.00167,0.00631,0.95207,0.00608,0.00631,2,12172,0,5859,0.11658,0.06557,0.56240,98,1,95.940,71,1,2,2601,187491,0,0,0.000,5.798,63.232,0,0.000,15.692,15.624,0,0,1,0,1
PPG,1,88241,3531191552,210,75186,81430,81113.227,316.773,35.359,0,0,0,0,0.00,nan,1,2,512,nan,4,1,24,1,1,17,17,0,0,0,3532320968,0.03931,0.00732,0.95093,0.95177,-0.00505,-0.00081,-0.00087,0.00519,0.95619,0.00798,0.00556,3,12129,0,5860,0.11658,0.06557,0.56240,98,1,95.940,71,1,2,4301,187491,0,0,0.000,5.798,63.232,0,0.000,15.692,15.624,0,0,1,0,1
PPG,1,88242,3531231552,119,75195,81455,81116.641,338.359,37.312,0,0,0,0,0.00,nan,1,2,512,nan,4,1,24,1,1,18,18,0,0,0,3532360444,0.03882,0.00439,0.95264,0.95344,-0.00665,-0.00081,-0.00167,0.00691,0.95394,0.00225,0.00691,3,12262,0,5860,0.11658,0.06557,0.56240,98,1,95.940,71,1,2,2631,187491,0,0,0.000,5.798,63.232,0,0.000,15.692,15.624,0,0,1,0,1
PPG,1,88243,3531271552,122,75184,81464,81120.117,343.883,39.039,0,0,0,0,0.00,nan,1,2,512,nan,4,1,24,1,1,19,19,0,0,0,3532402428,0.04224,0.00708,0.94727,0.94823,-0.00638,-0.00135,-0.00167,0.00674,0.95346,0.00426,0.00674,3,12264,0,5860,0.11658,0.06557,0.56240,98,1,95.940,71,1,2,4335,187491,0,0,0.000,5.798,63.232,0,0.000,15.692,15.624,0,0,1,0,1
PPG,1,88244,3531311552,124,75158,81454,81123.453,330.547,40.641,0,0,0,0,0.00,nan,1,2,512,nan,4,1,24,1,1,20,20,0,0,0,3532441680,0.04272,0.00708,0.94800,0.94899,-0.00558,0.00025,-0.00034,0.00560,0.95507,0.00793,0.00642,3,12246,0,5860,0.11658,0.06557,0.56240,98,1,95.940,71,1,2,4348,187491,0,0,0.000,5.798,63.232,0,0.000,15.692,15.624,0,0,1,0,1
PPG,1,88245,3531351552,138,75166,81467,81126.891,340.109,40.789,0,0,0,0,0.00,nan,1,2,512,nan,4,1,24,1,1,21,21,0,0,0,3532480984,0.04004,0.00537,0.94873,0.94959,-0.00558,-0.00001,-0.00114,0.00570,0.95441,0.00542,0.00649,3,12251,0,5860,0.11658,0.06557,0.56240,98,1,95.940,71,1,2,4331,187491,0,0,0.000,5.798,63.232,0,0.000,15.692,15.624,0,0,1,0,1
PPG,1,88246,3531391552,125,75172,81485,81130.469,354.531,42.391,0,0,0,0,0.00,nan,1,2,512,nan,4,1,24,1,1,22,22,0,0,0,3532520219,0.03906,0.00488,0.95654,0.95735,-0.00665,-0.00028,-0.00141,0.00680,0.95735,0.00906,0.00680,3,12257,0,5860,0.11658,0.06557,0.56240,98,1,95.940,71,1,2,2633,187491,0,0,0.000,5.798,63.232,0,0.000,15.692,15.624,0,0,1,0,1
PPG,1,88247,3531431552,121,75183,81503,81134.195,368.805,47.727,0,0,0,0,0.00,nan,1,2,512,nan,4,1,24,1,1,23,23,0,0,0,3532562184,0.03955,0.00928,0.94897,0.94984,-0.00585,-0.00081,-0.00194,0.00622,0.95563,0.00579,0.00637,3,12248,0,5860,0.11658,0.06557,0.56240,98,1,95.940,71,1,2,4339,187491,0,0,0.000,5.798,63.232,0,0.000,15.692,15.624,0,0,1,0,1
PPG,1,88248,3531471552,124,75189,81525,81138.102,386.898,56.500,0,0,0,0,0.00,nan,1,2,512,nan,4,1,24,1,1,24,24,0,0,0,3532601389,0.03833,0.00854,0.95117,0.95198,-0.00585,-0.00241,-0.00087,0.00639,0.95587,0.00688,0.00674,3,12216,0,5860,0.11658,0.06557,0.56240,98,1,95.940,71,1,2,4349,187491,0,0,29.445,5.798,63.232,1,0.000,15.692,15.624,0,0,1,0,1
PPG,1,88249,3531511552,135,75182,81523,81141.953,381.047,56.461,0,0,0,0,0.00,nan,1,2,512,nan,4,1,24,1,1,25,25,0,0,0,3532640747,0.03613,0.00830,0.95459,0.95531,-0.00558,-0.00161,-0.00194,0.00613,0.95531,0.00323,0.00716,3,12282,0,5860,0.11658,0.06557,0.56240,98,1,95.940,71,1,2,4355,187491,0,0,0.000,5.988,55.391,0,0.000,15.692,15.624,0,0,1,0,1
PPG,1,88250,3531551552,509,75152,81464,81145.172,318.828,47.812,0,0,0,0,0.00,nan,1,2,512,nan,4,1,24,1,1,26,26,0,0,0,3532679995,0.03882,0.00415,0.94312,0.94392,-0.00558,-0.00108,-0.00221,0.00610,0.95500,0.01108,0.00626,3,12208,0,5860,0.14614,0.04871,0.33333,98,1,nan,166,1,2,2633,187491,0,0,0.000,5.988,55.391,0,0.000,15.692,15.624,0,0,1,0,1
PPG,1,88251,3531591552,172,75120,81399,81147.711,251.289,34.859,0,0,0,0,0.00,nan,1,2,512,nan,4,1,24,1,1,27,27,0,0,0,3532722332,0.03882,0.00586,0.94946,0.95027,-0.00532,0.00025,-0.00221,0.00576,0.95401,0.01009,0.00617,3,12226,0,5860,0.14614,0.04871,0.33333,98,1,nan,166,1,2,4340,187491,0,0,0.000,5.988,55.391,0,0.000,15.692,15.624,0,0,1,0,1
PPG,1,88252,3531631552,122,75106,81384,81150.070,233.930,21.250,0,0,0,0,0.00,nan,1,2,512,nan,4,1,24,1,1,28,28,0,0,0,3532761615,0.04199,0.00781,0.94873,0.94969,-0.00585,-0.00081,-0.00114,0.00602,0.95608,0.00639,0.00602,3,12229,0,5860,0.14614,0.04871,0.33333,98,1,nan,166,1,2,4329,187491,0,0,0.000,5.988,55.391,0,0.000,15.692,15.624,0,0,1,0,1
PPG,1,88253,3531671552,122,75118,81387,81152.438,234.562,6.203,0,0,0,0,0.00,nan,1,2,512,nan,4,1,24,1,1,29,29,0,0,0,3532800776,0.04150,0.00586,0.94873,0.94966,-0.00558,0.00079,-0.00221,0.00606,0.95346,0.00377,0.00606,3,12208,0,5860,0.14614,0.04871,0.33333,98,1,nan,166,1,2,4322,187491,0,0,0.000,5.988,55.391,0,0.000,15.692,15.624,0,0,1,0,1
PPG,1,88254,3531711552,154,75114,81413,81155.047,257.953,-6.859,0,0,0,0,0.00,nan,1,2,512,nan,4,1,24,1,1,30,30,0,0,0,3532840049,0.04150,0.00562,0.95068,0.95161,-0.00745,-0.00055,-0.00247,0.00787,0.95630,0.00469,0.00787,3,12250,0,5860,0.14614,0.04871,0.33333,98,1,nan,166,1,2,2653,187491,0,0,0.000,5.988,55.391,0,0.000,15.692,15.624,0,0,1,0,1
PPG,1,88255,3531751552,126,75141,81435,81157.844,277.156,-20.461,0,0,0,0,0.00,nan,1,2,512,nan,4,1,24,1,1,31,31,0,0,0,3532882073,0.04248,0.01050,0.94873,0.94974,-0.00585,-0.00081,-0.00274,0.00651,0.95426,0.00350,0.00665,3,12229,0,5860,0.14614,0.04871,0.33333,98,1,nan,166,1,2,4338,187491,0,0,0.000,5.988,55.391,0,0.000,15.692,15.624,0,0,1,0,1
PPG,1,88256,3531791552,117,75140,81448,81160.742,287.258,-31.977,1,0,0,0,0.00,nan,1,2,512,nan,4,1,24,1,1,0,0,0,0,0,3532921253,0.03784,0.00659,0.95361,0.95439,-0.00558,-0.00135,-0.00274,0.00636,0.95439,0.00573,0.00637,3,12241,0,5860,0.14614,0.04871,0.33333,98,1,nan,166,1,2,4336,187491,0,0,0.000,5.988,55.391,0,79.117,15.692,15.624,1,0,1,0,1
PPG,1,88257,3531831552,123,75156,81455,81163.688,291.312,-34.711,0,0,0,0,0.00,nan,1,2,512,nan,4,1,24,1,1,1,1,0,0,0,3532960440,0.04053,0.01074,0.95483,0.95575,-0.00585,-0.00135,-0.00007,0.00600,0.96224,0.00973,0.00600,3,12150,0,5860,0.14614,0.04871,0.33333,98,1,nan,166,1,2,2619,187491,0,0,0.000,5.988,55.391,0,0.000,15.692,15.624,0,0,1,0,1
PPG,1,88258,3531871552,118,75151,81456,81166.609,289.391,-27.023,0,0,0,0,0.00,nan,1,2,512,nan,4,1,24,1,1,2,2,0,0,0,3533002157,0.03809,0.00757,0.94312,0.94391,-0.00638,0.00052,-0.00221,0.00677,0.95020,0.00742,0.00677,3,12120,0,5860,0.14614,0.04871,0.33333,98,1,nan,166,1,2,4329,187491,0,0,0.000,5.988,55.391,0,0.000,15.692,15.624,0,0,1,0,1
PPG,1,88259,3531911552,131,75174,81471,81169.656,301.344,-15.289,0,0,0,0,0.00,nan,1,2,512,nan,4,1,24,1,1,3,3,0,0,0,3533041111,0.04126,0.00586,0.94409,0.94501,-0.00585,0.00105,-0.00141,0.00611,0.95580,0.01189,0.00630,3,12138,0,5860,0.14614,0.04871,0.33333,98,1,nan,166,1,2,4298,187491,0,0,0.000,5.988,55.391,0,0.000,15.692,15.624,0,0,1,0,1
PPG,1,88260,3531951552,120,75178,81491,81172.867,318.133,-2.742,0,0,0,0,0.00,nan,1,2,512,nan,4,1,24,1,1,4,4,0,0,0,3533080157,0.04297,0.00806,0.95166,0.95266,-0.00532,-0.00028,-0.00114,0.00545,0.95578,0.01077,0.00577,3,12124,0,5860,0.14614,0.04871,0.33333,98,1,nan,166,1,2,2600,187491,0,0,0.000,5.988,55.391,0,0.000,15.692,15.624,0,0,1,0,1
PPG,1,88261,3531991552,120,75183,81499,81176.125,322.875,6.102,0,0,0,0,0.00,nan,1,2,512,nan,4,1,24,1,1,5,5,0,0,0,3533121649,0.04126,0.00854,0.95117,0.95210,-0.00558,-0.00001,-0.00194,0.00591,0.95210,0.00312,0.00623,3,12127,0,5860,0.14614,0.04871,0.33333,98,1,nan,166,1,2,4303,187491,0,0,0.000,5.988,55.391,0,0.000,15.692,15.624,0,0,1,0,1
PPG,1,88262,3532031552,117,75176,81489,81179.250,309.750,12.109,0,0,0,0,0.00,nan,1,2,512,nan,4,1,24,1,1,6,6,0,0,0,3533160611,0.03711,0.00513,0.95166,0.95240,-0.00638,-0.00081,-0.00007,0.00644,0.95338,0.00128,0.00680,3,12188,0,5860,0.14614,0.04871,0.33333,98,1,nan,166,1,2,2599,187491,0,0,0.000,5.988,55.391,0,0.000,15.692,15.624,0,0,1,0,1
PPG,1,88263,3532071552,123,75178,81500,81182.461,317.539,17.742,0,0,0,0,0.00,nan,1,2,512,nan,4,1,24,1,1,7,7,0,0,0,3533202054,0.04175,0.00171,0.95264,0.95355,-0.00585,-0.00001,-0.00087,0.00592,0.95355,0.00688,0.00623,3,12114,0,5860,0.14614,0.04871,0.33333,98,1,nan,166,1,2,4298,187491,0,0,0.000,5.988,55.391,0,0.000,15.692,15.624,0,0,1,0,1
PPG,1,88264,3532111552,124,75164,81508,81185.719,322.281,22.609,0,0,0,0,0.00,nan,1,2,512,nan,4,1,24,1,1,8,8,0,0,0,3533252831,0.03638,0.00586,0.95117,0.95189,-0.00532,-0.00055,-0.00167,0.00560,0.95189,0.00338,0.00560,3,24042,0,5861,0.14614,0.04871,0.33333,98,1,nan,166,1,2,14461,187491,0,0,0.000,5.988,55.391,0,0.000,15.692,15.624,0,0,1,0,1
PPG,1,88265,3532151552,121,75169,81517,81189.031,327.969,28.828,0,0,0,0,0.00,nan,1,2,512,nan,4,1,24,1,1,9,9,0,0,0,3533277124,0.03833,0.00513,0.95239,0.95318,-0.00585,-0.00161,-0.00167,0.00630,0.95318,0.00350,0.00630,2,12165,0,5861,0.14614,0.04871,0.33333,98,1,nan,166,1,2,2595,187491,0,0,0.000,5.988,55.391,0,0.000,15.692,15.624,0,0,1,0,1
PPG,1,88266,3532191552,120,75178,81522,81192.359,329.641,34.258,0,0,0,0,0.00,nan,1,2,512,nan,4,1,24,1,1,10,10,0,0,0,3533321214,0.03882,0.00806,0.94946,0.95029,-0.00638,-0.00028,-0.00247,0.00685,0.95504,0.00475,0.00685,3,12123,0,5861,0.14614,0.04871,0.33333,98,1,nan,166,1,2,4302,187491,0,0,0.000,5.988,55.391,0,0.000,15.692,15.624,0,0,1,0,1
PPG,1,88267,3532231552,120,75186,81546,81195.898,350.102,39.969,0,0,0,0,0.00,nan,1,2,512,nan,4,1,24,1,1,11,11,0,0,0,3533360126,0.03711,0.00684,0.95239,0.95314,-0.00692,-0.00055,-0.00247,0.00737,0.95804,0.00490,0.00737,3,12145,0,5861,0.14614,0.04871,0.33333,98,1,nan,166,1,2,2595,187491,0,0,0.000,5.988,55.391,0,0.000,15.692,15.624,0,0,1,0,1
PPG,1,88268,3532271552,120,75186,81544,81199.383,344.617,45.453,0,0,0,0,0.00,nan,1,2,512,nan,4,1,24,1,1,12,12,0,0,0,3533401641,0.04004,0.00342,0.95581,0.95665,-0.00532,-0.00135,-0.00247,0.00602,0.95665,0.00519,0.00659,3,12127,0,5861,0.14614,0.04871,0.33333,98,1,nan,166,1,2,4300,187491,0,0,0.000,5.988,55.391,0,0.000,15.692,15.624,0,0,1,0,1
PPG,1,88269,3532311552,132,75150,81529,81202.680,326.320,50.859,0,0,0,0,0.00,nan,1,2,512,nan,4,1,24,1,1,13,13,0,0,0,3533440536,0.04224,0.00073,0.95386,0.95479,-0.00612,-0.00055,-0.00061,0.00617,0.95479,0.00577,0.00639,3,12113,0,5861,0.14614,0.04871,0.33333,98,1,nan,166,1,2,2599,187491,0,0,0.000,5.988,55.391,0,0.000,15.692,15.624,0,0,1,0,1
PPG,1,88270,3532351552,124,75176,81546,81206.109,339.891,53.336,0,0,0,0,0.00,nan,1,2,512,nan,4,1,24,1,1,14,14,0,0,0,3533482059,0.03760,0.00586,0.95605,0.95681,-0.00558,-0.00081,-0.00167,0.00589,0.95681,0.00496,0.00668,3,12114,0,5861,0.14614,0.04871,0.33333,98,1,nan,166,1,2,4303,187491,0,0,0.000,5.988,55.391,0,0.000,15.692,15.624,0,0,1,0,1
PPG,1,88271,3532391552,143,75171,81563,81209.680,353.320,52.992,0,0,0,0,0.00,nan,1,2,512,nan,4,1,24,1,1,15,15,0,0,0,3533520940,0.04102,0.00488,0.96045,0.96134,-0.00558,0.00052,-0.00141,0.00578,0.96134,0.00716,0.00586,3,12110,0,5861,0.14614,0.04871,0.33333,98,1,nan,166,1,2,4301,187491,0,0,0.000,5.988,55.391,0,0.000,15.692,15.624,0,0,1,0,1
PPG,1,88272,3532431552,120,75149,81483,81212.414,270.586,43.188,0,0,0,0,0.00,nan,1,2,512,nan,4,1,24,1,1,16,16,0,0,0,3533559845,0.04395,0.00830,0.95117,0.95222,-0.00558,-0.00028,-0.00114,0.00571,0.95228,0.00906,0.00571,3,12124,0,5861,0.14614,0.04871,0.33333,98,1,nan,166,1,2,2603,187491,0,0,0.000,5.988,55.391,0,0.000,15.692,15.624,0,0,1,0,1
PPG,1,88273,3532471552,121,75137,81424,81214.531,209.469,27.336,0,0,0,0,0.00,nan,1,2,512,nan,4,1,24,1,1,17,17,0,0,0,3533601456,0.03857,0.00781,0.95044,0.95125,-0.00479,-0.00055,-0.00167,0.00510,0.95775,0.00553,0.00648,3,12128,0,5861,0.14614,0.04871,0.33333,98,1,nan,166,1,2,4300,187491,0,0,0.000,5.988,55.391,0,0.000,15.692,15.624,0,0,1,0,1
PPG,1,88274,3532511552,120,75094,81378,81216.164,161.836,5.086,0,0,0,0,0.00,nan,1,2,512,nan,4,1,24,1,1,18,18,0,0,0,3533640337,0.03857,0.00781,0.95166,0.95247,-0.00612,-0.00055,-0.00141,0.00630,0.95762,0.00905,0.00630,3,12122,0,5861,0.14614,0.04871,0.33333,98,1,nan,166,1,2,2599,187491,0,0,0.000,5.988,55.391,0,0.000,15.692,15.624,0,0,1,0,1
PPG,1,88275,3532551552,508,75107,81399,81217.992,181.008,-13.828,0,0,0,0,0.00,nan,1,2,512,nan,2,2,24,1,1,19,19,0,0,0,3533681878,0.03662,0.00513,0.95435,0.95506,-0.00585,-0.00028,-0.00221,0.00626,0.95582,0.00798,0.00659,3,12155,0,5861,0.15434,0.03910,0.25335,98,1,nan,107,1,4,4300,187491,0,0,0.000,5.988,55.391,0,0.000,15.692,15.624,0,0,1,0,1
PPG,1,88276,3532591552,168,75114,81423,81220.039,202.961,-27.719,0,0,0,0,0.00,nan,1,2,512,nan,2,2,24,1,1,20,20,0,0,0,3533721195,0.04077,0.00586,0.95825,0.95914,-0.00532,0.00025,-0.00167,0.00558,0.95914,0.00365,0.00684,3,12126,0,5861,0.15434,0.03910,0.25335,98,1,nan,107,1,4,4300,187491,0,0,59.422,5.988,55.391,1,0.000,15.692,15.624,0,0,1,0,1
PPG,1,88277,3532631552,120,75118,81433,81222.172,210.828,-42.758,0,0,0,0,0.00,nan,1,2,512,nan,2,2,24,1,1,21,21,0,0,0,3533760133,0.04053,0.00854,0.95337,0.95427,-0.00532,0.00025,-0.00114,0.00544,0.95427,0.01095,0.00570,3,12125,0,5861,0.15434,0.03910,0.25335,98,1,nan,107,1,4,2615,187491,0,0,0.000,5.988,55.391,0,0.000,15.692,15.624,0,0,1,0,1
PPG,1,88278,3532671552,139,75126,81443,81224.383,218.617,-59.258,1,0,1,0,0.00,nan,1,2,0,nan,2,2,24,1,1,22,22,0,0,0,3533801647,0.03711,0.00513,0.95020,0.95093,-0.00638,-0.00028,-0.00114,0.00649,0.95559,0.00552,0.00718,3,12130,0,5861,0.15434,0.03910,0.25335,98,1,nan,107,1,4,4303,187491,0,0,0.000,5.988,55.391,0,88.047,15.692,15.624,1,1,1,0,1
PPG,1,88279,3532711552,120,75114,81441,81226.547,214.453,-63.758,0,0,0,0,0.00,nan,1,2,0,nan,2,2,24,1,1,23,23,0,0,0,3533840630,0.04199,0.00781,0.95459,0.95555,-0.00505,-0.00055,-0.00194,0.00544,0.95555,0.00451,0.00626,3,12134,0,5861,0.15434,0.03910,0.25335,98,1,nan,107,1,4,2606,187491,0,0,0.000,5.802,53.081,0,0.000,15.357,14.885,0,0,1,0,1
PPG,1,88280,3532751552,121,75116,81442,81228.703,213.297,-58.742,0,0,0,0,0.00,nan,1,2,0,nan,2,2,24,1,1,24,24,0,0,0,3533882139,0.03882,0.00928,0.95508,0.95591,-0.00532,-0.00055,-0.00141,0.00553,0.95591,0.00501,0.00616,3,12137,0,5861,0.15434,0.03910,0.25335,98,1,nan,107,1,4,4299,187491,0,0,0.000,5.802,53.081,0,0.000,15.357,14.885,0,0,1,0,1
PPG,1,88281,3532791552,141,75127,81446,81230.875,215.125,-46.367,0,0,0,0,0.00,nan,1,2,0,nan,2,2,24,1,1,25,25,0,0,0,3533921014,0.04297,0.01025,0.95190,0.95293,-0.00532,0.00025,-0.00194,0.00567,0.95293,0.00591,0.00567,3,12109,0,5861,0.15434,0.03910,0.25335,98,1,nan,107,1,4,4294,187491,0,0,0.000,5.802,53.081,0,0.000,15.357,14.885,0,0,1,0,1
PPG,1,88282,3532831552,119,75119,81462,81233.188,228.812,-36.023,0,0,0,0,0.00,nan,1,2,0,nan,2,2,24,1,1,26,26,0,0,0,3533959887,0.04150,0.00220,0.94824,0.94915,-0.00558,-0.00161,-0.00221,0.00622,0.95176,0.00408,0.00628,3,12119,0,5861,0.15434,0.03910,0.25335,98,1,nan,107,1,4,2595,187491,0,0,0.000,5.802,53.081,0,0.000,15.357,14.885,0,0,1,0,1
PPG,1,88283,3532871552,119,75140,81489,81235.742,253.258,-26.039,0,0,0,0,0.00,nan,1,2,0,nan,2,2,24,1,1,27,27,0,0,0,3534001627,0.03833,0.00903,0.94702,0.94784,-0.00532,0.00079,-0.00194,0.00571,0.95499,0.00715,0.00589,3,12141,0,5861,0.15434,0.03910,0.25335,98,1,nan,107,1,4,4296,187491,0,0,0.000,5.802,53.081,0,0.000,15.357,14.885,0,0,1,0,1
PPG,1,88284,3532911552,120,75144,81493,81238.312,254.688,-16.719,0,0,0,0,0.00,nan,1,2,0,nan,2,2,24,1,1,28,28,0,0,0,3534040508,0.04297,0.00366,0.94946,0.95044,-0.00585,-0.00055,-0.00194,0.00619,0.95428,0.00644,0.00619,3,12118,0,5861,0.15434,0.03910,0.25335,98,1,nan,107,1,4,2599,187491,0,0,0.000,5.802,53.081,0,0.000,15.357,14.885,0,0,1,0,1
PPG,1,88285,3532951552,119,75135,81511,81241.039,269.961,-6.711,0,0,0,0,0.00,nan,1,2,0,nan,2,2,24,1,1,29,29,0,0,0,3534082125,0.03955,0.00781,0.94751,0.94837,-0.00665,-0.00001,-0.00141,0.00680,0.95589,0.00563,0.00680,3,12208,0,5861,0.15434,0.03910,0.25335,98,1,nan,107,1,4,4402,187491,0,0,0.000,5.802,53.081,0,0.000,15.357,14.885,0,0,1,0,1
PPG,1,88286,3532991552,118,75144,81530,81243.930,286.070,5.609,0,0,0,0,0.00,nan,1,2,0,nan,2,2,24,1,1,30,30,0,0,0,3534121297,0.03955,0.00708,0.95190,0.95275,-0.00558,0.00025,-0.00247,0.00611,0.95618,0.00782,0.00611,3,12113,0,5861,0.15434,0.03910,0.25335,98,1,nan,107,1,4,4307,187491,0,0,0.000,5.802,53.081,0,0.000,15.357,14.885,0,0,1,0,1
PPG,1,88287,3533031552,118,75149,81520,81246.688,273.312,18.047,0,0,0,0,0.00,nan,1,2,0,nan,2,2,24,1,1,31,31,0,0,0,3534160138,0.03735,0.00732,0.95483,0.95559,-0.00612,-0.00001,-0.00141,0.00628,0.95559,0.00460,0.00659,3,12109,0,5861,0.15434,0.03910,0.25335,98,1,nan,107,1,4,2595,187491,0,0,0.000,5.802,53.081,0,0.000,15.357,14.885,0,0,1,0,1
PPG,1,88288,3533071552,196,75150,81543,81249.648,293.352,31.961,0,0,0,0,0.00,nan,1,2,0,nan,2,2,24,1,1,0,0,0,0,0,3534201721,0.03760,0.00806,0.94800,0.94878,-0.00558,0.00025,-0.00194,0.00592,0.95331,0.00425,0.00685,3,12116,0,5861,0.15434,0.03910,0.25335,98,1,nan,107,1,4,4298,187491,0,0,0.000,5.802,53.081,0,0.000,15.357,14.885,0,0,1,0,1
PPG,1,88289,3533111552,124,75160,81543,81252.578,290.422,42.828,0,0,0,0,0.00,nan,1,2,0,nan,2,2,24,1,1,1,1,0,0,0,3534253429,0.03687,0.00757,0.95264,0.95338,-0.00612,-0.00055,-0.00007,0.00614,0.95473,0.00315,0.00723,3,24710,0,5862,0.15434,0.03910,0.25335,98,1,nan,107,1,4,15132,187491,0,0,0.000,5.802,53.081,0,0.000,15.357,14.885,0,0,1,0,1
PPG,1,88290,3533151552,118,75165,81551,81255.562,295.438,51.438,0,0,0,0,0.00,nan,1,2,0,nan,2,2,24,1,1,2,2,0,0,0,3534277660,0.04004,0.00586,0.95410,0.95496,-0.00638,0.00025,-0.00194,0.00668,0.95545,0.00207,0.00668,2,12166,0,5862,0.15434,0.03910,0.25335,98,1,nan,107,1,4,2629,187491,0,0,0.000,5.802,53.081,0,0.000,15.357,14.885,0,0,1,0,1
PPG,1,88291,3533191552,121,75148,81544,81258.445,285.555,59.672,0,0,0,0,0.00,nan,1,2,0,nan,2,2,24,1,1,3,3,0,0,0,3534322219,0.03760,0.00635,0.95020,0.95096,-0.00585,-0.00028,-0.00194,0.00617,0.95902,0.00777,0.00617,3,12214,0,5862,0.15434,0.03910,0.25335,98,1,nan,107,1,4,4344,187491,0,0,0.000,5.802,53.081,0,0.000,15.357,14.885,0,0,1,0,1
PPG,1,88292,3533231552,120,75144,81549,81261.352,287.648,61.797,0,1,0,0,0.00,nan,1,2,0,nan,2,2,24,1,1,4,4,0,0,0,3534361483,0.03687,0.00488,0.95435,0.95507,-0.00532,0.00025,-0.00167,0.00558,0.95507,0.00255,0.00696,3,12293,0,5862,0.15434,0.03910,0.25335,98,1,nan,107,1,4,4355,187491,0,0,0.000,5.802,53.081,0,0.000,15.357,14.885,0,0,1,0,1
PPG,1,88293,3533271552,130,75150,81570,81264.438,305.562,60.211,0,0,0,0,0.00,nan,1,2,0,nan,2,2,24,1,1,5,5,0,0,0,3534400688,0.03906,0.00854,0.95557,0.95640,-0.00692,-0.00028,-0.00194,0.00719,0.95640,0.00342,0.00719,3,12194,0,5862,0.15434,0.03910,0.25335,98,1,nan,107,1,4,2654,187491,0,0,0.000,5.802,53.081,0,0.000,15.357,14.885,0,0,1,0,1
PPG,1,88294,3533311552,133,75132,81549,81267.281,281.719,55.812,0,0,0,0,0.00,nan,1,2,0,nan,2,2,24,1,1,6,6,0,0,0,3534442665,0.04102,0.00073,0.95435,0.95523,-0.00665,-0.00055,-0.00247,0.00712,0.95523,0.00245,0.00785,3,12263,0,5862,0.15434,0.03910,0.25335,98,1,nan,107,1,4,4336,187491,0,0,0.000,5.802,53.081,0,0.000,15.357,14.885,0,0,1,0,1
PPG,1,88295,3533351552,129,75098,81458,81269.188,188.812,40.711,0,0,0,0,0.00,nan,1,2,0,nan,2,2,24,1,1,7,7,0,0,0,3534481943,0.03955,0.00903,0.95190,0.95277,-0.00612,-0.00001,-0.00247,0.00660,0.95277,0.00678,0.00697,3,12208,0,5862,0.15434,0.03910,0.25335,98,1,nan,107,1,4,4362,187491,0,0,0.000,5.802,53.081,0,0.000,15.357,14.885,0,0,1,0,1
PPG,1,88296,3533391552,118,75094,81400,81270.492,129.508,21.438,0,0,0,0,0.00,nan,1,2,0,nan,2,2,24,1,1,8,8,0,0,0,3534521290,0.04028,0.00732,0.95020,0.95108,-0.00638,-0.00135,-0.00167,0.00674,0.95174,0.00103,0.00697,3,12254,0,5862,0.15434,0.03910,0.25335,98,1,nan,107,1,4,4360,187491,0,0,0.000,5.802,53.081,0,0.000,15.357,14.885,0,0,1,0,1
PPG,1,88297,3533431552,120,75084,81389,81271.680,117.320,0.492,0,0,0,0,0.00,nan,1,2,0,nan,2,2,24,1,1,9,9,0,0,0,3534560539,0.03662,0.00195,0.94946,0.95017,-0.00558,-0.00081,-0.00114,0.00576,0.95141,0.00615,0.00607,3,12200,0,5862,0.15434,0.03910,0.25335,98,1,nan,107,1,4,2654,187491,0,0,0.000,5.802,53.081,0,0.000,15.357,14.885,0,0,1,0,1
PPG,1,88298,3533471552,118,75071,81411,81273.070,137.930,-16.906,0,0,0,0,0.00,nan,1,2,0,nan,2,2,24,1,1,10,10,0,0,0,3534602445,0.03857,0.00537,0.95288,0.95368,-0.00585,-0.00135,-0.00167,0.00623,0.95368,0.00429,0.00623,3,12258,0,5862,0.15434,0.03910,0.25335,98,1,nan,107,1,4,4337,187491,0,0,0.000,5.802,53.081,0,0.000,15.357,14.885,0,0,1,0,1
PPG,1,88299,3533511552,119,75085,81413,81274.469,138.531,-34.938,0,0,0,0,0.00,nan,1,2,0,nan,2,2,24,1,1,11,11,0,0,0,3534641687,0.04077,0.00195,0.95068,0.95156,-0.00585,0.00025,-0.00114,0.00597,0.95156,0.00358,0.00624,3,12240,0,5862,0.15434,0.03910,0.25335,98,1,nan,107,1,4,4315,187491,0,0,0.000,5.802,53.081,0,0.000,15.357,14.885,0,0,1,0,1
PPG,1,88300,3533551552,518,75101,81439,81276.117,162.883,-53.500,1,0,0,0,0.00,nan,1,2,0,nan,4,1,24,1,1,12,12,0,0,0,3534680933,0.04053,0.00586,0.95142,0.95230,-0.00612,-0.00055,-0.00274,0.00672,0.95475,0.00319,0.00672,3,12249,0,5862,0.10723,0.04251,0.39640,50,1,100.090,34,1,2,2623,187491,0,0,0.000,5.802,53.081,0,125.555,15.357,14.885,1,0,1,0,1
PPG,1,88301,3533591552,195,75113,81461,81277.969,183.031,-66.820,0,0,1,940,63.83,63.83,2,1,0,nan,4,1,24,1,1,13,13,0,0,0,3534723251,0.04126,0.00830,0.95117,0.95210,-0.00558,-0.00108,-0.00274,0.00631,0.95250,0.00344,0.00631,3,12248,0,5862,0.10723,0.04251,0.39640,50,1,100.090,34,1,3,4342,187491,0,0,56.078,5.802,53.081,1,0.000,15.357,14.885,0,1,1,0,2
PPG,1,88302,3533631552,120,75115,81450,81279.688,170.312,-67.359,0,0,0,0,63.83,63.83,2,1,0,nan,4,1,24,1,1,14,14,0,0,0,3534762668,0.03735,0.00659,0.94995,0.95071,-0.00532,-0.00028,-0.00061,0.00536,0.95399,0.00376,0.00598,3,12246,0,5862,0.10723,0.04251,0.39640,50,1,100.090,34,1,3,4337,187491,0,0,0.000,5.618,50.801,0,0.000,15.299,14.756,0,0,1,0,2
PPG,1,88303,3533671552,131,75087,81444,81281.328,162.672,-58.828,0,0,0,0,63.83,63.83,2,1,0,nan,4,1,24,1,1,15,15,0,0,0,3534802068,0.03857,0.00684,0.94873,0.94954,-0.00692,-0.00081,-0.00300,0.00758,0.95003,0.00520,0.00758,3,12281,0,5862,0.10723,0.04251,0.39640,50,1,100.090,34,1,3,4346,187491,0,0,0.000,5.618,50.801,0,0.000,15.299,14.756,0,0,1,0,2
PPG,1,88304,3533711552,130,75101,81454,81283.055,170.945,-47.594,0,0,0,0,63.83,63.83,2,1,0,nan,4,1,24,1,1,16,16,0,0,0,3534880360,0.03857,0.00586,0.94775,0.94856,-0.00638,-0.00108,-0.00221,0.00684,0.94957,0.00101,0.00747,2,63559,0,5867,0.10723,0.04251,0.39640,50,1,100.090,34,1,3,59082,187491,0,0,0.000,5.618,50.801,0,0.000,15.299,14.756,0,0,1,0,2
PPG,1,88305,3533751552,128,75104,81467,81284.891,182.109,-37.391,0,0,0,0,63.83,63.83,2,1,0,nan,4,1,24,1,1,17,17,0,0,0,3534892570,0.04053,0.00122,0.95361,0.95447,-0.00612,-0.00028,-0.00194,0.00642,0.95447,0.00592,0.00642,1,12210,0,5867,0.10723,0.04251,0.39640,50,1,100.090,34,1,3,12120,187491,0,0,0.000,5.618,50.801,0,0.000,15.299,14.756,0,0,1,0,2
PPG,1,88306,3533791552,121,75099,81489,81286.930,202.070,-24.492,0,0,0,0,63.83,63.83,2,1,0,nan,4,1,24,1,1,18,18,0,0,0,3534917079,0.03955,0.00757,0.95142,0.95227,-0.00585,-0.00081,-0.00274,0.00651,0.95227,0.00516,0.00735,2,12339,0,5867,0.10723,0.04251,0.39640,50,1,100.090,34,1,3,2597,187491,0,0,0.000,5.618,50.801,0,0.000,15.299,14.756,0,0,1,0,2
PPG,1,88307,3533831552,121,75098,81475,81288.812,186.188,-17.094,0,0,0,0,63.83,63.83,2,1,0,nan,4,1,24,1,1,19,19,0,0,0,3534961444,0.03906,0.00684,0.95532,0.95614,-0.00612,-0.00001,-0.00194,0.00642,0.95614,0.00255,0.00707,3,12266,0,5867,0.10723,0.04251,0.39640,50,1,100.090,34,1,3,4296,187491,0,0,0.000,5.618,50.801,0,0.000,15.299,14.756,0,0,1,0,2
PPG,1,88308,3533871552,125,75094,81486,81290.781,195.219,-10.672,0,0,0,0,63.83,63.83,2,1,0,nan,4,1,24,1,1,20,20,0,0,0,3535000531,0.03833,0.00684,0.94653,0.94733,-0.00452,0.00025,-0.00061,0.00457,0.94928,0.00686,0.00672,3,12133,0,5867,0.10723,0.04251,0.39640,50,1,100.090,34,1,3,2604,187491,0,0,0.000,5.618,50.801,0,0.000,15.299,14.756,0,0,1,0,2
PPG,1,88309,3533911552,125,75095,81497,81292.844,204.156,-1.656,0,0,0,0,63.83,63.83,2,1,0,nan,4,1,24,1,1,21,21,0,0,0,3535042108,0.04175,0.00854,0.94922,0.95017,-0.00638,-0.00161,-0.00167,0.00679,0.95017,0.00233,0.00679,3,12168,0,5867,0.10723,0.04251,0.39640,50,1,100.090,34,1,3,4298,187491,0,0,0.000,5.618,50.801,0,0.000,15.299,14.756,0,0,1,0,2
PPG,1,88310,3533951552,120,75087,81490,81294.812,195.188,7.961,0,0,0,0,63.83,63.83,2,1,0,nan,4,1,24,1,1,22,22,0,0,0,3535081022,0.03882,0.00464,0.95337,0.95417,-0.00638,0.00025,-0.00114,0.00649,0.95718,0.01079,0.00665,3,12119,0,5867,0.10723,0.04251,0.39640,50,1,100.090,34,1,3,2597,187491,0,0,0.000,5.618,50.801,0,0.000,15.299,14.756,0,0,1,0,2
PPG,1,88311,3533991552,122,75078,81495,81296.812,198.188,16.273,0,0,0,0,63.83,63.83,2,1,0,nan,4,1,24,1,1,23,23,0,0,0,3535122692,0.04419,0.00635,0.94531,0.94637,-0.00638,-0.00028,-0.00114,0.00649,0.95304,0.00488,0.00675,3,12126,0,5867,0.10723,0.04251,0.39640,50,1,100.090,34,1,3,4308,187491,0,0,0.000,5.618,50.801,0,0.000,15.299,14.756,0,0,1,0,2
PPG,1,88312,3534031552,120,75107,81522,81299.062,222.938,25.477,0,0,0,0,63.83,63.83,2,1,0,nan,4,1,24,1,1,24,24,0,0,0,3535161740,0.03906,0.01123,0.95020,0.95106,-0.00532,-0.00108,-0.00141,0.00561,0.95251,0.00614,0.00599,3,12135,0,5867,0.10723,0.04251,0.39640,50,1,100.090,34,1,3,4302,187491,0,0,0.000,5.618,50.801,0,0.000,15.299,14.756,0,0,1,0,2
PPG,1,88313,3534071552,121,75101,81534,81301.414,232.586,33.711,0,0,0,0,63.83,63.83,2,1,0,nan,4,1,24,1,1,25,25,0,0,0,3535200794,0.04175,0.01147,0.95557,0.95655,-0.00558,-0.00055,-0.00141,0.00578,0.95655,0.00329,0.00597,3,12140,0,5867,0.10723,0.04251,0.39640,50,1,100.090,34,1,3,2626,187491,0,0,0.000,5.618,50.801,0,0.000,15.299,14.756,0,0,1,0,2
PPG,1,88314,3534111552,136,75077,81529,81303.688,225.312,42.422,0,0,0,0,63.83,63.83,2,1,0,nan,4,1,24,1,1,26,26,0,0,0,3535254285,0.03833,-0.00098,0.95410,0.95487,-0.00558,-0.00108,-0.00061,0.00572,0.95606,0.00740,0.00637,3,24030,0,5868,0.10723,0.04251,0.39640,50,1,100.090,34,1,3,14462,187491,0,0,0.000,5.618,50.801,0,0.000,15.299,14.756,0,0,1,0,2
PPG,1,88315,3534151552,124,75095,81543,81306.078,236.922,46.312,0,0,0,0,63.83,63.83,2,1,0,nan,4,1,24,1,1,27,27,0,0,0,3535278719,0.03809,0.00879,0.95093,0.95173,-0.00638,-0.00028,-0.00087,0.00645,0.95303,0.00184,0.00645,2,12185,0,5868,0.10723,0.04251,0.39640,50,1,100.090,34,1,3,2605,187491,0,0,0.000,5.618,50.801,0,0.000,15.299,14.756,0,0,1,0,2
PPG,1,88316,3534191552,120,75100,81555,81308.570,246.430,46.852,0,0,0,0,63.83,63.83,2,1,0,nan,4,1,24,1,1,28,28,0,0,0,3535320382,0.04053,0.00659,0.94507,0.94596,-0.00612,0.00132,-0.00141,0.00641,0.95157,0.00561,0.00641,3,12125,0,5868,0.10723,0.04251,0.39640,50,1,100.090,34,1,3,2597,187491,0,0,0.000,5.618,50.801,0,0.000,15.299,14.756,0,0,1,0,2
PPG,1,88317,3534231552,124,75116,81569,81311.172,257.828,49.141,0,1,0,0,63.83,63.83,2,1,0,nan,4,1,24,1,1,29,29,0,0,0,3535361906,0.03809,0.00586,0.95361,0.95439,-0.00532,-0.00135,-0.00167,0.00574,0.95823,0.00792,0.00631,3,12119,0,5868,0.10723,0.04251,0.39640,50,1,100.090,34,1,3,4301,187491,0,0,0.000,5.618,50.801,0,0.000,15.299,14.756,0,0,1,0,2
PPG,1,88318,3534271552,150,75089,81483,81312.891,170.109,43.820,0,0,0,0,63.83,63.83,2,1,0,nan,4,1,24,1,1,30,30,0,0,0,3535400834,0.04126,0.00439,0.95313,0.95403,-0.00692,-0.00055,-0.00167,0.00714,0.95901,0.00936,0.00714,3,12117,0,5868,0.10723,0.04251,0.39640,50,1,100.090,34,1,3,2603,187491,0,0,0.000,5.618,50.801,0,0.000,15.299,14.756,0,0,1,0,2
PPG,1,88319,3534311552,131,75062,81412,81313.883,98.117,28.156,0,0,0,0,63.83,63.83,2,1,0,nan,4,1,24,1,1,31,31,0,0,0,3535442430,0.03906,0.00488,0.95142,0.95223,-0.00505,-0.00028,-0.00114,0.00519,0.95332,0.00086,0.00609,3,12114,0,5868,0.10723,0.04251,0.39640,50,1,100.090,34,1,3,4309,187491,0,0,0.000,5.967,41.366,0,0.000,15.299,14.756,0,0,1,0,2
PPG,1,88320,3534351552,120,75045,81389,81314.633,74.367,9.938,0,0,0,0,63.83,63.83,2,1,0,nan,4,1,24,1,1,0,0,0,0,0,3535481387,0.04272,0.00879,0.94629,0.94729,-0.00612,0.00025,-0.00274,0.00671,0.95466,0.00465,0.00671,3,12116,0,5868,0.10723,0.04251,0.39640,50,1,100.090,34,1,3,4297,187491,0,0,0.000,5.967,41.366,0,0.000,15.299,14.756,0,0,1,0,2
PPG,1,88321,3534391552,127,75019,81383,81315.320,67.680,-7.008,0,0,0,0,63.83,63.83,2,1,0,nan,4,1,24,1,1,1,1,0,0,0,3535520419,0.03882,0.00415,0.95117,0.95197,-0.00558,-0.00001,-0.00300,0.00634,0.95960,0.00949,0.00648,3,12141,0,5868,0.10723,0.04251,0.39640,50,1,100.090,34,1,3,2599,187491,0,0,31.094,5.967,41.366,1,0.000,15.299,14.756,0,0,1,0,2
PPG,1,88322,3534431552,121,74996,81386,81316.023,69.977,-26.242,0,0,0,0,63.83,63.83,2,1,0,nan,4,1,24,1,1,2,2,0,0,0,3535561965,0.03662,0.00488,0.95996,0.96067,-0.00612,-0.00028,-0.00221,0.00651,0.96067,0.00741,0.00708,3,12126,0,5868,0.10723,0.04251,0.39640,50,1,100.090,34,1,3,4311,187491,0,0,0.000,5.967,41.366,0,0.000,15.299,14.756,0,0,1,0,2
PPG,1,88323,3534471552,121,75006,81385,81316.711,68.289,-47.578,0,0,0,0,63.83,63.83,2,1,0,nan,4,1,24,1,1,3,3,0,0,0,3535600908,0.04395,0.00977,0.95068,0.95175,-0.00612,-0.00028,-0.00221,0.00651,0.95175,0.01233,0.00651,3,12122,0,5868,0.10723,0.04251,0.39640,50,1,100.090,34,1,3,2598,187491,0,0,0.000,5.967,41.366,0,0.000,15.299,14.756,0,0,1,0,2
PPG,1,88324,3534511552,120,75013,81408,81317.625,90.375,-68.281,0,0,0,0,63.83,63.83,2,1,0,nan,4,1,24,1,1,4,4,0,0,0,3535642452,0.04248,0.00244,0.95386,0.95481,-0.00665,-0.00161,-0.00141,0.00699,0.95481,0.00470,0.00699,3,12116,0,5868,0.10723,0.04251,0.39640,50,1,100.090,34,1,3,4305,187491,0,0,0.000,5.967,41.366,0,0.000,15.299,14.756,0,0,1,0,2
PPG,1,88325,3534551552,514,74997,81413,81318.578,94.422,-75.578,1,0,0,0,63.83,63.83,2,1,0,nan,4,1,24,1,1,5,5,0,0,0,3535681385,0.03491,0.00928,0.95361,0.95430,-0.00585,-0.00108,-0.00194,0.00626,0.95430,0.00291,0.00698,3,12114,0,5868,0.07358,0.06456,0.87730,99,1,88.067,62,1,3,4297,187491,0,0,0.000,5.967,41.366,0,116.500,15.299,14.756,1,0,1,0,2
PPG,1,88326,3534591552,169,75016,81420,81319.594,100.406,-70.992,0,0,0,0,63.83,63.83,2,1,0,nan,4,1,24,1,1,6,6,0,0,0,3535720837,0.03931,0.00537,0.94580,0.94663,-0.00665,0.00079,-0.00167,0.00690,0.95765,0.01102,0.00690,3,12186,0,5868,0.07358,0.06456,0.87730,99,1,88.067,62,1,3,2608,187491,0,0,0.000,5.967,41.366,0,0.000,15.299,14.756,0,0,1,0,2
PPG,1,88327,3534631552,121,75015,81448,81320.875,127.125,-61.211,0,0,0,0,63.83,63.83,2,1,0,nan,4,1,24,1,1,7,7,0,0,0,3535762430,0.03833,0.00659,0.94702,0.94782,-0.00692,-0.00028,-0.00114,0.00702,0.95313,0.00531,0.00702,3,12121,0,5868,0.07358,0.06456,0.87730,99,1,88.067,62,1,3,4308,187491,0,0,0.000,5.967,41.366,0,0.000,15.299,14.756,0,0,1,0,2
PPG,1,88328,3534671552,120,74997,81438,81322.047,115.953,-50.953,0,0,0,0,63.83,63.83,2,1,0,nan,4,1,24,1,1,8,8,0,0,0,3535801371,0.04102,0.00806,0.95386,0.95477,-0.00558,0.00079,-0.00167,0.00588,0.95477,0.00388,0.00668,3,12119,0,5868,0.07358,0.06456,0.87730,99,1,88.067,62,1,3,4307,187491,0,0,0.000,5.967,41.366,0,0.000,15.299,14.756,0,0,1,0,2
PPG,1,88329,3534711552,128,75014,81459,81323.414,135.586,-38.617,0,0,0,0,63.83,63.83,2,1,0,nan,4,1,24,1,1,9,9,0,0,0,3535840413,0.04053,0.00610,0.95093,0.95181,-0.00585,-0.00055,-0.00221,0.00628,0.95227,0.00501,0.00628,3,12118,0,5868,0.07358,0.06456,0.87730,99,1,88.067,62,1,3,2604,187491,0,0,0.000,5.967,41.366,0,0.000,15.299,14.756,0,0,1,0,2
PPG,1,88330,3534751552,120,75011,81460,81324.781,135.219,-26.406,0,0,0,0,63.83,63.83,2,1,0,nan,4,1,24,1,1,10,10,0,0,0,3535881948,0.03857,0.00562,0.95435,0.95514,-0.00585,0.00025,-0.00194,0.00617,0.95514,0.00445,0.00688,3,12120,0,5868,0.07358,0.06456,0.87730,99,1,88.067,62,1,3,4302,187491,0,0,0.000,5.967,41.366,0,0.000,15.299,14.756,0,0,1,0,2
PPG,1,88331,3534791552,122,75013,81479,81326.320,152.680,-15.461,0,0,0,0,63.83,63.83,2,1,0,nan,4,1,24,1,1,11,11,0,0,0,3535920887,0.03784,0.00732,0.94873,0.94951,-0.00532,-0.00001,-0.00194,0.00566,0.95525,0.00573,0.00611,3,12140,0,5868,0.07358,0.06456,0.87730,99,1,88.067,62,1,3,2596,187491,0,0,0.000,5.967,41.366,0,0.000,15.299,14.756,0,0,1,0,2
PPG,1,88332,3534831552,120,75036,81512,81328.180,183.820,-0.820,0,0,0,0,63.83,63.83,2,1,0,nan,4,1,24,1,1,12,12,0,0,0,3535962430,0.04346,0.01074,0.94897,0.95003,-0.00452,0.00025,-0.00274,0.00529,0.95339,0.00388,0.00529,3,12120,0,5868,0.07358,0.06456,0.87730,99,1,88.067,62,1,3,4310,187491,0,0,0.000,5.967,41.366,0,0.000,15.299,14.756,0,0,1,0,2
PPG,1,88333,3534871552,121,75032,81529,81330.188,198.812,15.000,0,0,0,0,63.83,63.83,2,1,0,nan,4,1,24,1,1,13,13,0,0,0,3536001370,0.04004,0.00684,0.95337,0.95423,-0.00558,-0.00028,-0.00247,0.00611,0.95423,0.00395,0.00721,3,12116,0,5868,0.07358,0.06456,0.87730,99,1,88.067,62,1,3,4301,187491,0,0,0.000,5.967,41.366,0,0.000,15.299,14.756,0,0,1,0,2
PPG,1,88334,3534911552,121,75028,81517,81332.055,184.945,25.461,0,0,0,0,63.83,63.83,2,1,0,nan,4,1,24,1,1,14,14,0,0,0,3536040689,0.04077,0.00586,0.94482,0.94572,-0.00612,-0.00055,-0.00167,0.00637,0.95618,0.01046,0.00637,3,12269,0,5868,0.07358,0.06456,0.87730,99,1,88.067,62,1,3,2647,187491,0,0,0.000,5.967,41.366,0,0.000,15.299,14.756,0,0,1,0,2
PPG,1,88335,3534951552,120,75019,81493,81333.664,159.336,35.812,0,0,0,0,63.83,63.83,2,1,0,nan,4,1,24,1,1,15,15,0,0,0,3536082445,0.03906,0.00757,0.95215,0.95298,-0.00612,-0.00081,-0.00061,0.00620,0.95480,0.00497,0.00694,3,12174,0,5868,0.07358,0.06456,0.87730,99,1,88.067,62,1,3,4300,187491,0,0,0.000,5.967,41.366,0,0.000,15.299,14.756,0,0,1,0,2
PPG,1,88336,3534991552,121,75021,81512,81335.445,176.555,45.539,0,0,0,0,63.83,63.83,2,1,0,nan,4,1,24,1,1,16,16,0,0,0,3536121422,0.04199,0.00806,0.95142,0.95238,-0.00638,-0.00055,-0.00167,0.00662,0.95238,0.00218,0.00668,3,12122,0,5868,0.07358,0.06456,0.87730,99,1,88.067,62,1,3,4304,187491,0,0,0.000,5.967,41.366,0,0.000,15.299,14.756,0,0,1,0,2
PPG,1,88337,3535031552,124,75025,81510,81337.188,172.812,55.633,0,0,0,0,63.83,63.83,2,1,0,nan,4,1,24,1,1,17,17,0,0,0,3536160535,0.03906,0.00488,0.95508,0.95589,-0.00505,0.00025,-0.00167,0.00533,0.95589,0.00311,0.00695,3,12248,0,5868,0.07358,0.06456,0.87730,99,1,88.067,62,1,3,2599,187491,0,0,0.000,5.967,41.366,0,0.000,15.299,14.756,0,0,1,0,2
PPG,1,88338,3535071552,122,75031,81528,81339.094,188.906,60.383,0,0,0,0,63.83,63.83,2,1,0,nan,4,1,24,1,1,18,18,0,0,0,3536202271,0.03809,0.00415,0.95190,0.95267,-0.00638,-0.00028,-0.00141,0.00654,0.95267,0.00599,0.00654,3,12124,0,5868,0.07358,0.06456,0.87730,99,1,88.067,62,1,3,4305,187491,0,0,0.000,5.967,41.366,0,0.000,15.299,14.756,0,0,1,0,2
PPG,1,88339,3535111552,138,75053,81549,81341.195,207.805,58.812,0,0,0,0,63.83,63.83,2,1,0,nan,4,1,24,1,1,19,19,0,0,0,3536257927,0.03931,0.00366,0.94971,0.95053,-0.00479,-0.00108,-0.00114,0.00504,0.95560,0.00507,0.00660,4,16393,0,5868,0.07358,0.06456,0.87730,99,1,88.067,62,1,3,16326,187491,0,0,0.000,5.967,41.366,0,0.000,15.299,14.756,0,0,1,0,2
PPG,1,88340,3535151552,134,75021,81531,81343.094,187.906,52.000,0,0,0,0,63.83,63.83,2,1,0,nan,4,1,24,1,1,20,20,0,0,0,3536282501,0.04126,0.00732,0.95508,0.95600,-0.00612,-0.00001,-0.00061,0.00615,0.95600,0.00959,0.00615,2,12304,0,5868,0.07358,0.06456,0.87730,99,1,88.067,62,1,3,4325,187491,0,0,0.000,5.967,41.366,0,0.000,15.299,14.756,0,0,1,0,2
PPG,1,88341,3535191552,129,74977,81427,81343.930,83.070,36.938,0,1,0,0,63.83,63.83,2,1,0,nan,4,1,24,1,1,21,21,0,0,0,3536321772,0.04150,0.00537,0.95483,0.95575,-0.00638,0.00105,-0.00087,0.00653,0.95575,0.00503,0.00654,3,12203,0,5868,0.07358,0.06456,0.87730,99,1,88.067,62,1,3,4353,187491,0,0,0.000,5.967,41.366,0,0.000,15.299,14.756,0,0,1,0,2
PPG,1,88342,3535231552,143,74954,81370,81344.188,25.812,20.172,0,0,0,0,63.83,63.83,2,1,0,nan,4,1,24,1,1,22,22,0,0,0,3536361183,0.04346,0.00488,0.94922,0.95023,-0.00638,0.00025,-0.00167,0.00660,0.95261,0.00492,0.00660,3,12254,0,5868,0.07358,0.06456,0.87730,99,1,88.067,62,1,3,2637,187491,0,0,0.000,5.967,41.366,0,0.000,15.299,14.756,0,0,1,0,2
PPG,1,88343,3535271552,121,74967,81380,81344.547,35.453,1.562,0,0,0,0,63.83,63.83,2,1,0,nan,4,1,24,1,1,23,23,0,0,0,3536403166,0.03735,0.00830,0.95435,0.95511,-0.00612,-0.00135,-0.00221,0.00664,0.95511,0.00354,0.00664,3,12192,0,5868,0.07358,0.06456,0.87730,99,1,88.067,62,1,3,4328,187491,0,0,0.000,5.967,41.366,0,0.000,15.299,14.756,0,0,1,0,2
PPG,1,88344,3535311552,121,74970,81406,81345.164,60.836,-13.188,0,0,0,0,63.83,63.83,2,1,0,nan,4,1,24,1,1,24,24,0,0,0,3536442536,0.03687,0.00439,0.95020,0.95092,-0.00505,-0.00081,-0.00061,0.00515,0.95974,0.01042,0.00563,3,12273,0,5868,0.07358,0.06456,0.87730,99,1,88.067,62,1,3,4333,187491,0,0,0.000,5.967,41.366,0,0.000,15.299,14.756,0,0,1,0,2
PPG,1,88345,3535351552,122,74986,81427,81345.984,81.016,-28.320,0,0,0,0,63.83,63.83,2,1,0,nan,4,1,24,1,1,25,25,0,0,0,3536481839,0.03906,0.00513,0.95361,0.95443,-0.00558,-0.00028,-0.00221,0.00601,0.95443,0.00308,0.00617,3,12214,0,5868,0.07358,0.06456,0.87730,99,1,88.067,62,1,3,4350,187491,0,0,0.000,5.967,41.366,0,0.000,15.299,14.756,0,0,1,0,2
PPG,1,88346,3535391552,156,74984,81433,81346.852,86.148,-45.539,1,0,0,0,63.83,63.83,2,1,0,nan,4,1,24,1,1,26,26,0,0,0,3536521157,0.03833,0.00610,0.95483,0.95562,-0.00558,0.00025,-0.00221,0.00601,0.95788,0.01196,0.00601,3,12247,0,5868,0.07358,0.06456,0.87730,99,1,88.067,62,1,3,2635,187491,0,0,0.000,5.967,41.366,0,135.961,15.299,14.756,1,0,1,0,2
PPG,1,88347,3535431552,136,74967,81428,81347.664,80.336,-59.258,0,0,1,0,0.00,nan,1,2,0,nan,4,1,24,1,1,27,27,0,0,0,3536563200,0.04199,0.00757,0.95483,0.95579,-0.00479,-0.00081,-0.00114,0.00499,0.95637,0.00627,0.00502,3,12226,0,5868,0.07358,0.06456,0.87730,99,1,88.067,62,1,2,4326,187491,0,0,62.047,5.967,41.366,1,0.000,15.299,14.756,0,1,1,0,1
PPG,1,88348,3535471552,116,74956,81429,81348.477,80.523,-58.523,0,0,0,0,0.00,nan,1,2,0,nan,4,1,24,1,1,28,28,0,0,0,3536602461,0.04517,0.00659,0.95068,0.95178,-0.00585,-0.00028,-0.00114,0.00597,0.95422,0.00156,0.00665,3,12233,0,5868,0.07358,0.06456,0.87730,99,1,88.067,62,1,2,4326,187491,0,0,0.000,5.844,40.119,0,0.000,15.312,14.787,0,0,1,0,1
PPG,1,88349,3535511552,118,74982,81430,81349.289,80.711,-48.500,0,0,0,0,0.00,nan,1,2,0,nan,4,1,24,1,1,29,29,0,0,0,3536641752,0.03784,0.00610,0.95337,0.95414,-0.00638,-0.00055,-0.00247,0.00687,0.95424,0.00207,0.00687,3,12315,0,5868,0.07358,0.06456,0.87730,99,1,88.067,62,1,2,4344,187491,0,0,0.000,5.844,40.119,0,0.000,15.312,14.787,0,0,1,0,1
PPG,1,88350,3535551552,514,74985,81452,81350.312,101.688,-37.812,0,0,0,0,0.00,nan,1,2,0,nan,4,1,24,1,1,30,30,0,0,0,3536680971,0.04370,0.00610,0.95264,0.95366,-0.00558,0.00052,-0.00114,0.00572,0.95457,0.00091,0.00731,3,12229,0,5868,0.06670,0.08564,1.28389,100,1,77.903,83,1,2,2623,187491,0,0,0.000,5.844,40.119,0,0.000,15.312,14.787,0,0,1,0,1
PPG,1,88351,3535591552,170,75012,81485,81351.656,133.344,-26.828,0,0,0,0,0.00,nan,1,2,0,nan,4,1,24,1,1,31,31,0,0,0,3536723358,0.03687,0.00610,0.94751,0.94825,-0.00585,-0.00055,-0.00061,0.00591,0.95432,0.00607,0.00591,3,12246,0,5868,0.06670,0.08564,1.28389,100,1,77.903,83,1,2,4337,187491,0,0,0.000,5.844,40.119,0,0.000,15.312,14.787,0,0,1,0,1
PPG,1,88352,3535631552,118,75006,81499,81353.133,145.867,-15.891,0,0,0,0,0.00,nan,1,2,0,nan,4,1,24,1,1,0,0,0,0,0,3536762693,0.03931,0.00635,0.95117,0.95200,-0.00665,-0.00028,-0.00167,0.00686,0.95404,0.00579,0.00686,3,12239,0,5868,0.06670,0.08564,1.28389,100,1,77.903,83,1,2,4326,187491,0,0,0.000,5.844,40.119,0,0.000,15.312,14.787,0,0,1,0,1
PPG,1,88353,3535671552,124,75012,81499,81354.594,144.406,-4.961,0,0,0,0,0.00,nan,1,2,0,nan,4,1,24,1,1,1,1,0,0,0,3536801909,0.04346,0.00854,0.95142,0.95245,-0.00558,0.00079,-0.00167,0.00588,0.95468,0.00224,0.00668,3,12241,0,5868,0.06670,0.08564,1.28389,100,1,77.903,83,1,2,4336,187491,0,0,0.000,5.844,40.119,0,0.000,15.312,14.787,0,0,1,0,1
PPG,1,88354,3535711552,117,75011,81505,81356.102,148.898,6.641,0,0,0,0,0.00,nan,1,2,0,nan,4,1,24,1,1,2,2,0,0,0,3536841137,0.03809,0.00806,0.95190,0.95270,-0.00585,0.00025,-0.00061,0.00589,0.95270,0.00422,0.00644,3,12313,0,5868,0.06670,0.08564,1.28389,100,1,77.903,83,1,2,2600,187491,0,0,0.000,5.844,40.119,0,0.000,15.312,14.787,0,0,1,0,1
PPG,1,88355,3535751552,119,75016,81520,81357.742,162.258,18.289,0,0,0,0,0.00,nan,1,2,0,nan,4,1,24,1,1,3,3,0,0,0,3536882695,0.03979,0.00854,0.95044,0.95131,-0.00612,0.00025,-0.00114,0.00623,0.95159,0.00773,0.00688,3,12173,0,5868,0.06670,0.08564,1.28389,100,1,77.903,83,1,2,4357,187491,0,0,0.000,5.844,40.119,0,0.000,15.312,14.787,0,0,1,0,1
PPG,1,88356,3535791552,117,75015,81537,81359.531,177.469,32.320,0,0,0,0,0.00,nan,1,2,0,nan,4,1,24,1,1,4,4,0,0,0,3536921714,0.04077,0.00757,0.95093,0.95183,-0.00585,-0.00081,-0.00141,0.00607,0.95761,0.00630,0.00607,3,12135,0,5868,0.06670,0.08564,1.28389,100,1,77.903,83,1,2,4295,187491,0,0,0.000,5.844,40.119,0,0.000,15.312,14.787,0,0,1,0,1
PPG,1,88357,3535831552,119,75028,81543,81361.367,181.633,43.672,0,0,0,0,0.00,nan,1,2,0,nan,4,1,24,1,1,5,5,0,0,0,3536960670,0.04102,0.00684,0.95093,0.95184,-0.00638,-0.00081,-0.00167,0.00665,0.95291,0.00251,0.00665,3,12128,0,5868,0.06670,0.08564,1.28389,100,1,77.903,83,1,2,2604,187491,0,0,0.000,5.844,40.119,0,0.000,15.312,14.787,0,0,1,0,1
PPG,1,88358,3535871552,117,75029,81554,81363.297,190.703,52.227,0,0,0,0,0.00,nan,1,2,0,nan,4,1,24,1,1,6,6,0,0,0,3537002190,0.03882,0.00317,0.95386,0.95465,-0.00612,-0.00108,-0.00167,0.00643,0.95465,0.00220,0.00694,3,12132,0,5868,0.06670,0.08564,1.28389,100,1,77.903,83,1,2,4297,187491,0,0,0.000,5.844,40.119,0,0.000,15.312,14.787,0,0,1,0,1
PPG,1,88359,3535911552,119,75025,81573,81365.391,207.609,61.602,0,0,0,0,0.00,nan,1,2,0,nan,4,1,24,1,1,7,7,0,0,0,3537041090,0.03687,0.00977,0.95313,0.95389,-0.00532,-0.00081,-0.00221,0.00581,0.95571,0.00460,0.00639,3,12123,0,5868,0.06670,0.08564,1.28389,100,1,77.903,83,1,2,2602,187491,0,0,0.000,5.844,40.119,0,0.000,15.312,14.787,0,0,1,0,1
PPG,1,88360,3535951552,117,75028,81586,81367.594,218.406,71.281,0,0,0,0,0.00,nan,1,2,0,nan,4,1,24,1,1,8,8,0,0,0,3537082626,0.04517,0.00537,0.94653,0.94763,-0.00558,-0.00081,-0.00221,0.00606,0.95243,0.00458,0.00706,3,12117,0,5868,0.06670,0.08564,1.28389,100,1,77.903,83,1,2,4297,187491,0,0,0.000,5.844,40.119,0,0.000,15.312,14.787,0,0,1,0,1
PPG,1,88361,3535991552,133,75027,81551,81369.430,181.570,71.648,0,1,0,0,0.00,nan,1,2,0,nan,4,1,24,1,1,9,9,0,0,0,3537121567,0.03833,0.00806,0.95337,0.95417,-0.00452,-0.00055,-0.00221,0.00506,0.95636,0.00874,0.00596,3,12119,0,5868,0.06670,0.08564,1.28389,100,1,77.903,83,1,2,4299,187491,0,0,0.000,5.844,40.119,0,0.000,15.312,14.787,0,0,1,0,1
PPG,1,88362,3536031552,128,75012,81500,81370.734,129.266,62.289,0,0,0,0,0.00,nan,1,2,0,nan,4,1,24,1,1,10,10,0,0,0,3537160576,0.03784,0.00708,0.95776,0.95854,-0.00612,-0.00001,-0.00167,0.00634,0.95854,0.00316,0.00634,3,12157,0,5868,0.06670,0.08564,1.28389,100,1,77.903,83,1,2,2598,187491,0,0,0.000,5.844,40.119,0,0.000,15.312,14.787,0,0,1,0,1
PPG,1,88363,3536071552,122,74992,81437,81371.398,65.602,45.156,0,0,0,0,0.00,nan,1,2,0,nan,4,1,24,1,1,11,11,0,0,0,3537202104,0.03955,0.00488,0.95166,0.95249,-0.00585,-0.00188,-0.00141,0.00630,0.95558,0.00296,0.00630,3,12128,0,5868,0.06670,0.08564,1.28389,100,1,77.903,83,1,2,4298,187491,0,0,0.000,5.844,40.119,0,0.000,15.312,14.787,0,0,1,0,1
PPG,1,88364,3536111552,124,74996,81438,81372.062,65.938,28.562,0,0,0,0,0.00,nan,1,2,0,nan,4,1,24,1,1,12,12,0,0,0,3537259962,0.03882,0.00635,0.94946,0.95028,-0.00612,-0.00081,-0.00167,0.00639,0.95424,0.00503,0.00662,4,18983,0,5868,0.06670,0.08564,1.28389,100,1,77.903,83,1,2,14627,187491,0,0,0.000,5.844,40.119,0,0.000,15.312,14.787,0,0,1,0,1
PPG,1,88365,3536151552,118,74990,81450,81372.844,77.156,12.547,0,0,0,0,0.00,nan,1,2,0,nan,4,1,24,1,1,13,13,0,0,0,3537284325,0.04370,0.00537,0.94824,0.94926,-0.00585,0.00025,-0.00007,0.00586,0.95624,0.00698,0.00645,2,12176,0,5868,0.06670,0.08564,1.28389,100,1,77.903,83,1,2,2586,187491,0,0,0.000,5.844,40.119,0,0.000,15.312,14.787,0,0,1,0,1
PPG,1,88366,3536191552,117,74988,81438,81373.492,64.508,-6.992,0,0,0,0,0.00,nan,1,2,0,nan,4,1,24,1,1,14,14,0,0,0,3537320654,0.04102,0.00879,0.95581,0.95673,-0.00585,-0.00055,-0.00194,0.00619,0.95673,0.00569,0.00619,3,12127,0,5868,0.06670,0.08564,1.28389,100,1,77.903,83,1,2,2599,187491,0,0,0.000,5.844,40.119,0,0.000,15.312,14.787,0,0,1,0,1
PPG,1,88367,3536231552,118,74981,81461,81374.367,86.633,-26.492,0,0,0,0,0.00,nan,1,2,0,nan,4,1,24,1,1,15,15,0,0,0,3537362306,0.03662,0.00537,0.95190,0.95262,-0.00665,0.00025,-0.00194,0.00693,0.95381,0.00292,0.00693,3,12277,0,5868,0.06670,0.08564,1.28389,100,1,77.903,83,1,2,4308,187491,0,0,0.000,5.844,40.119,0,0.000,15.312,14.787,0,0,1,0,1
PPG,1,88368,3536271552,121,74983,81461,81375.234,85.766,-40.953,0,0,0,0,0.00,nan,1,2,0,nan,4,1,24,1,1,16,16,0,0,0,3537401448,0.03809,0.00659,0.95020,0.95098,-0.00505,-0.00001,-0.00274,0.00575,0.95326,0.00228,0.00723,3,12112,0,5868,0.06670,0.08564,1.28389,100,1,77.903,83,1,2,2599,187491,0,0,60.320,5.844,40.119,1,0.000,15.312,14.787,0,0,1,0,1
PPG,1,88369,3536311552,146,74998,81470,81376.180,93.820,-47.242,1,0,1,880,68.18,68.18,2,1,0,nan,4,1,24,1,1,17,17,0,0,0,3537443053,0.03955,0.00879,0.95483,0.95569,-0.00452,-0.00028,-0.00141,0.00474,0.95569,0.00329,0.00600,3,12113,0,5868,0.06670,0.08564,1.28389,100,1,77.903,83,1,3,4299,187491,0,0,0.000,5.844,40.119,0,130.906,15.312,14.787,1,1,1,0,2
PPG,1,88370,3536351552,122,74990,81479,81377.211,101.789,-42.586,0,0,0,0,68.18,68.18,2,1,0,nan,4,1,24,1,1,18,18,0,0,0,3537482116,0.03833,0.00562,0.95020,0.95098,-0.00612,-0.00055,-0.00221,0.00653,0.95204,0.00365,0.00653,3,12114,0,5868,0.06670,0.08564,1.28389,100,1,77.903,83,1,3,4300,187491,0,0,0.000,5.725,38.918,0,0.000,15.293,14.743,0,0,1,0,2
PPG,1,88371,3536391552,120,74993,81495,81378.391,116.609,-34.938,0,0,0,0,68.18,68.18,2,1,0,nan,4,1,24,1,1,19,19,0,0,0,3537521022,0.04224,0.00439,0.95142,0.95236,-0.00612,0.00025,-0.00194,0.00642,0.95455,0.00356,0.00730,3,12105,0,5868,0.06670,0.08564,1.28389,100,1,77.903,83,1,3,2597,187491,0,0,0.000,5.725,38.918,0,0.000,15.293,14.743,0,0,1,0,2
PPG,1,88372,3536431552,120,75002,81494,81379.547,114.453,-28.406,0,0,0,0,68.18,68.18,2,1,0,nan,4,1,24,1,1,20,20,0,0,0,3537562641,0.03882,0.00635,0.95142,0.95223,-0.00612,0.00052,-0.00141,0.00630,0.95318,0.00302,0.00630,3,12166,0,5868,0.06670,0.08564,1.28389,100,1,77.903,83,1,3,4310,187491,0,0,0.000,5.725,38.918,0,0.000,15.293,14.743,0,0,1,0,2
PPG,1,88373,3536471552,120,74988,81499,81380.742,118.258,-19.688,0,0,0,0,68.18,68.18,2,1,0,nan,4,1,24,1,1,21,21,0,0,0,3537601604,0.04199,0.00464,0.94800,0.94894,-0.00585,-0.00028,-0.00141,0.00602,0.95622,0.00595,0.00637,3,12129,0,5868,0.06670,0.08564,1.28389,100,1,77.903,83,1,3,2598,187491,0,0,0.000,5.725,38.918,0,0.000,15.293,14.743,0,0,1,0,2
PPG,1,88374,3536511552,121,74994,81509,81382.023,126.977,-13.039,0,0,0,0,68.18,68.18,2,1,0,nan,4,1,24,1,1,22,22,0,0,0,3537643173,0.04395,0.00415,0.95483,0.95585,-0.00532,-0.00001,-0.00194,0.00566,0.95585,0.00637,0.00568,3,12117,0,5868,0.06670,0.08564,1.28389,100,1,77.903,83,1,3,4298,187491,0,0,0.000,5.725,38.918,0,0.000,15.293,14.743,0,0,1,0,2
PPG,1,88375,3536551552,510,74984,81520,81383.406,136.594,-4.609,0,0,0,0,68.18,68.18,2,1,0,99.00,0,1,24,1,1,23,23,0,0,0,3537682190,0.04077,0.00757,0.94849,0.94939,-0.00585,0.00025,-0.00194,0.00617,0.95449,0.00510,0.00617,3,12119,0,5868,0.06431,0.07804,1.21346,100,1,79.664,68,1,3,4297,187491,0,0,0.000,5.725,38.918,0,0.000,15.293,14.743,0,0,1,0,2
PPG,1,88376,3536591552,167,75010,81557,81385.141,171.859,6.820,0,0,0,0,68.18,68.18,2,1,0,99.00,0,1,24,1,1,24,24,0,0,0,3537721559,0.03955,0.00806,0.94678,0.94764,-0.00612,-0.00028,-0.00167,0.00635,0.95677,0.00913,0.00635,3,12111,0,5868,0.06431,0.07804,1.21346,100,1,79.664,68,1,3,2599,187491,0,0,0.000,5.725,38.918,0,0.000,15.293,14.743,0,0,1,0,2
PPG,1,88377,3536631552,119,75014,81576,81387.047,188.953,19.031,0,0,0,0,68.18,68.18,2,1,0,99.00,0,1,24,1,1,25,25,0,0,0,3537763157,0.04077,0.00879,0.95093,0.95184,-0.00612,-0.00055,-0.00114,0.00625,0.95557,0.00973,0.00669,3,12144,0,5868,0.06431,0.07804,1.21346,100,1,79.664,68,1,3,4313,187491,0,0,0.000,5.725,38.918,0,0.000,15.293,14.743,0,0,1,0,2
PPG,1,88378,3536671552,121,75028,81572,81388.898,183.102,29.133,0,0,0,0,68.18,68.18,2,1,0,99.00,0,1,24,1,1,26,26,0,0,0,3537802116,0.03906,0.00342,0.95654,0.95735,-0.00558,-0.00028,-0.00141,0.00577,0.95735,0.01003,0.00601,3,12119,0,5868,0.06431,0.07804,1.21346,100,1,79.664,68,1,3,4300,187491,0,0,0.000,5.725,38.918,0,0.000,15.293,14.743,0,0,1,0,2
PPG,1,88379,3536711552,119,75024,81571,81390.719,180.281,40.227,0,0,0,0,68.18,68.18,2,1,0,99.00,0,1,24,1,1,27,27,0,0,0,3537841052,0.04199,0.00684,0.95483,0.95578,-0.00638,-0.00001,-0.00194,0.00667,0.95578,0.00482,0.00667,3,12114,0,5868,0.06431,0.07804,1.21346,100,1,79.664,68,1,3,2598,187491,0,0,0.000,5.725,38.918,0,0.000,15.293,14.743,0,0,1,0,2
PPG,1,88380,3536751552,117,75005,81575,81392.562,182.438,51.641,0,0,0,0,68.18,68.18,2,1,0,99.00,0,1,24,1,1,28,28,0,0,0,3537882666,0.04102,0.00903,0.94946,0.95039,-0.00558,-0.00081,-0.00061,0.00568,0.95597,0.00433,0.00706,3,12111,0,5868,0.06431,0.07804,1.21346,100,1,79.664,68,1,3,4303,187491,0,0,0.000,5.725,38.918,0,0.000,15.293,14.743,0,0,1,0,2
PPG,1,88381,3536791552,124,75035,81594,81394.578,199.422,61.633,0,1,0,0,68.18,68.18,2,1,0,99.00,0,1,24,1,1,29,29,0,0,0,3537921693,0.04199,0.00586,0.95459,0.95553,-0.00558,-0.00001,-0.00247,0.00611,0.95553,0.00362,0.00668,3,12118,0,5868,0.06431,0.07804,1.21346,100,1,79.664,68,1,3,2606,187491,0,0,0.000,5.725,38.918,0,0.000,15.293,14.743,0,0,1,0,2
PPG,1,88382,3536831552,196,75029,81604,81396.672,207.328,68.430,0,0,0,0,68.18,68.18,2,1,0,99.00,0,1,24,1,1,30,30,0,0,0,3537963244,0.04321,0.00879,0.94922,0.95024,-0.00558,-0.00001,0.00019,0.00559,0.95466,0.00920,0.00559,3,12119,0,5868,0.06431,0.07804,1.21346,100,1,79.664,68,1,3,4340,187491,0,0,0.000,5.725,38.918,0,0.000,15.293,14.743,0,0,1,0,2
PPG,1,88383,3536871552,139,75016,81548,81398.188,149.812,61.594,0,0,0,0,68.18,68.18,2,1,0,99.00,0,1,24,1,1,31,31,0,0,0,3538002370,0.04028,0.00513,0.94995,0.95082,-0.00612,-0.00055,-0.00114,0.00625,0.95567,0.00485,0.00712,3,12115,0,5868,0.06431,0.07804,1.21346,100,1,79.664,68,1,3,4300,187491,0,0,0.000,5.725,38.918,0,0.000,15.293,14.743,0,0,1,0,2
PPG,1,88384,3536911552,119,74969,81458,81398.789,59.211,43.742,0,0,0,0,68.18,68.18,2,1,0,99.00,0,1,24,1,1,0,0,0,0,0,3538041407,0.03711,0.00513,0.94556,0.94630,-0.00612,-0.00055,-0.00141,0.00630,0.95515,0.00885,0.00728,3,12117,0,5868,0.06431,0.07804,1.21346,100,1,79.664,68,1,3,2595,187491,0,0,0.000,5.725,38.918,0,0.000,15.293,14.743,0,0,1,0,2
PPG,1,88385,3536951552,119,74936,81417,81398.969,18.031,23.242,0,0,0,0,68.18,68.18,2,1,0,99.00,0,1,24,1,1,1,1,0,0,0,3538082984,0.03784,0.00757,0.95654,0.95732,-0.00505,-0.00081,-0.00247,0.00568,0.95732,0.00413,0.00613,3,12139,0,5868,0.06431,0.07804,1.21346,100,1,79.664,68,1,3,4295,187491,0,0,0.000,5.725,38.918,0,0.000,15.293,14.743,0,0,1,0,2
PPG,1,88386,3536991552,118,74925,81411,81399.086,11.914,1.742,0,0,0,0,68.18,68.18,2,1,0,99.00,0,1,24,1,1,2,2,0,0,0,3538121912,0.04102,0.00781,0.94946,0.95038,-0.00505,0.00052,-0.00221,0.00554,0.95258,0.01179,0.00676,3,12117,0,5868,0.06431,0.07804,1.21346,100,1,79.664,68,1,3,4297,187491,0,0,0.000,5.725,38.918,0,0.000,15.293,14.743,0,0,1,0,2
PPG,1,88387,3537031552,119,74950,81432,81399.414,32.586,-17.242,0,0,0,0,68.18,68.18,2,1,0,99.00,0,1,24,1,1,3,3,0,0,0,3538160828,0.04297,0.00708,0.95801,0.95900,-0.00532,-0.00081,-0.00141,0.00556,0.95900,0.01157,0.00675,3,12117,0,5868,0.06431,0.07804,1.21346,100,1,79.664,68,1,3,2599,187491,0,0,0.000,5.725,38.918,0,0.000,15.293,14.743,0,0,1,0,2
PPG,1,88388,3537071552,118,74973,81463,81400.047,62.953,-36.062,0,0,0,0,68.18,68.18,2,1,0,99.00,0,1,24,1,1,4,4,0,0,0,3538202412,0.04053,0.00635,0.95386,0.95474,-0.00638,-0.00028,-0.00087,0.00645,0.95474,0.00912,0.00645,3,12118,0,5868,0.06431,0.07804,1.21346,100,1,79.664,68,1,3,4296,187491,0,0,0.000,5.725,38.918,0,0.000,15.293,14.743,0,0,1,0,2
PPG,1,88389,3537111552,127,74974,81479,81400.836,78.164,-54.359,0,0,0,0,68.18,68.18,2,1,0,99.00,0,1,24,1,1,5,5,0,0,0,3538260205,0.03613,0.00317,0.94824,0.94894,-0.00612,-0.00108,-0.00114,0.00632,0.95770,0.00861,0.00632,4,18815,0,5868,0.06431,0.07804,1.21346,100,1,79.664,68,1,3,14458,187491,0,0,0.000,5.725,38.918,0,0.000,15.293,14.743,0,0,1,0,2
PPG,1,88390,3537151552,146,74973,81489,81401.719,87.281,-63.289,1,0,1,860,68.18,68.18,2,1,0,99.00,0,1,24,1,1,6,6,0,0,0,3538284618,0.03857,0.00342,0.95215,0.95294,-0.00505,-0.00028,-0.00114,0.00519,0.95323,0.00430,0.00570,2,12181,0,5868,0.06431,0.07804,1.21346,100,1,79.664,68,1,3,2596,187491,0,0,37.031,5.725,38.918,1,115.672,15.293,14.743,1,1,1,0,3
PPG,1,88391,3537191552,120,74976,81457,81402.273,54.727,-61.539,0,0,0,0,68.18,68.18,2,1,0,99.00,0,1,24,1,1,7,7,0,0,0,3538321013,0.04395,0.00366,0.95776,0.95878,-0.00558,0.00025,-0.00141,0.00576,0.95878,0.01504,0.00594,3,12105,0,5868,0.06431,0.07804,1.21346,100,1,79.664,68,1,3,2596,187491,0,0,0.000,5.475,36.395,0,0.000,15.181,14.496,0,0,1,0,3
PPG,1,88392,3537231552,122,74945,81451,81402.758,48.242,-54.531,0,0,0,0,68.18,68.18,2,1,0,99.00,0,1,24,1,1,8,8,0,0,0,3538362528,0.03711,0.00757,0.94971,0.95046,-0.00585,-0.00108,-0.00007,0.00595,0.95306,0.00659,0.00606,3,12105,0,5868,0.06431,0.07804,1.21346,100,1,79.664,68,1,3,4295,187491,0,0,0.000,5.475,36.395,0,0.000,15.181,14.496,0,0,1,0,3
PPG,1,88393,3537271552,122,74933,81485,81403.578,81.422,-43.258,0,0,0,0,68.18,68.18,2,1,0,99.00,0,1,24,1,1,9,9,0,0,0,3538401593,0.04077,0.00586,0.95166,0.95255,-0.00585,-0.00081,-0.00167,0.00614,0.95415,0.00364,0.00678,3,12118,0,5868,0.06431,0.07804,1.21346,100,1,79.664,68,1,3,2597,187491,0,0,0.000,5.475,36.395,0,0.000,15.181,14.496,0,0,1,0,3
PPG,1,88394,3537311552,121,74945,81484,81404.383,79.617,-34.578,0,0,0,0,68.18,68.18,2,1,0,99.00,0,1,24,1,1,10,10,0,0,0,3538443281,0.03955,0.00537,0.95068,0.95152,-0.00558,-0.00081,-0.00300,0.00639,0.95464,0.00815,0.00639,3,12134,0,5868,0.06431,0.07804,1.21346,100,1,79.664,68,1,3,4309,187491,0,0,0.000,5.475,36.395,0,0.000,15.181,14.496,0,0,1,0,3
PPG,1,88395,3537351552,123,74971,81513,81405.469,107.531,-27.086,0,0,0,0,68.18,68.18,2,1,0,99.00,0,1,24,1,1,11,11,0,0,0,3538482681,0.04077,0.00586,0.95215,0.95304,-0.00692,-0.00001,-0.00034,0.00693,0.95678,0.00526,0.00693,3,12271,0,5868,0.06431,0.07804,1.21346,100,1,79.664,68,1,3,4342,187491,0,0,0.000,5.475,36.395,0,0.000,15.181,14.496,0,0,1,0,3
PPG,1,88396,3537391552,129,74969,81524,81406.656,117.344,-19.008,0,0,0,0,68.18,68.18,2,1,0,99.00,0,1,24,1,1,12,12,0,0,0,3538522048,0.04004,0.00635,0.94775,0.94862,-0.00505,-0.00108,-0.00114,0.00529,0.95341,0.00338,0.00688,3,12307,0,5868,0.06431,0.07804,1.21346,100,1,79.664,68,1,3,4347,187491,0,0,0.000,5.475,36.395,0,0.000,15.181,14.496,0,0,1,0,3
PPG,1,88397,3537431552,135,74964,81521,81407.797,113.203,-11.688,0,0,0,0,68.18,68.18,2,1,0,99.00,0,1,24,1,1,13,13,0,0,0,3538561330,0.03613,0.00781,0.95557,0.95628,-0.00718,-0.00028,-0.00114,0.00728,0.95628,0.00594,0.00765,3,12262,0,5868,0.06431,0.07804,1.21346,100,1,79.664,68,1,3,2636,187491,0,0,0.000,5.475,36.395,0,0.000,15.181,14.496,0,0,1,0,3
PPG,1,88398,3537471552,123,74968,81527,81408.992,118.008,0.562,0,0,0,0,68.18,68.18,2,1,0,99.00,0,1,24,1,1,14,14,0,0,0,3538603424,0.04321,0.00537,0.95117,0.95217,-0.00585,-0.00108,-0.00114,0.00606,0.95256,0.00618,0.00606,3,12270,0,5868,0.06431,0.07804,1.21346,100,1,79.664,68,1,3,4334,187491,0,0,0.000,5.475,36.395,0,0.000,15.181,14.496,0,0,1,0,3
PPG,1,88399,3537511552,123,74966,81540,81410.305,129.695,14.828,0,0,0,0,68.18,68.18,2,1,0,99.00,0,1,24,1,1,15,15,0,0,0,3538642741,0.03955,0.00586,0.95068,0.95152,-0.00558,0.00025,-0.00274,0.00622,0.95213,0.00435,0.00660,3,12217,0,5868,0.06431,0.07804,1.21346,100,1,79.664,68,1,3,4331,187491,0,0,0.000,5.475,36.395,0,0.000,15.181,14.496,0,0,1,0,3
PPG,1,88400,3537551552,509,74978,81563,81411.828,151.172,26.570,0,0,0,0,68.18,68.18,2,1,0,99.00,0,1,24,1,1,16,16,0,0,0,3538682076,0.03735,0.00537,0.95679,0.95753,-0.00585,-0.00028,-0.00114,0.00597,0.95753,0.00385,0.00639,3,12284,0,5868,0.06707,0.06217,0.92691,99,1,86.827,71,1,3,4351,187491,0,0,0.000,5.475,36.395,0,0.000,15.181,14.496,0,0,1,0,3
PPG,1,88401,3537591552,177,74999,81578,81413.492,164.508,40.797,0,0,0,0,68.18,68.18,2,1,0,99.00,0,1,24,1,1,17,17,0,0,0,3538721824,0.03882,0.00562,0.95142,0.95222,-0.00585,-0.00108,-0.00221,0.00635,0.95222,0.00956,0.00635,3,12245,0,5868,0.06707,0.06217,0.92691,99,1,86.827,71,1,3,2609,187491,0,0,0.000,5.475,36.395,0,0.000,15.181,14.496,0,0,1,0,3
PPG,1,88402,3537631552,135,74995,81569,81415.047,153.953,50.547,0,0,0,0,68.18,68.18,2,1,0,99.00,0,1,24,1,1,18,18,0,0,0,3538763790,0.04126,0.00854,0.94751,0.94845,-0.00638,-0.00055,-0.00141,0.00656,0.95496,0.00783,0.00656,3,12255,0,5868,0.06707,0.06217,0.92691,99,1,86.827,71,1,3,4355,187491,0,0,0.000,5.475,36.395,0,0.000,15.181,14.496,0,0,1,0,3
PPG,1,88403,3537671552,123,74973,81584,81416.734,167.266,57.320,0,0,0,0,68.18,68.18,2,1,0,99.00,0,1,24,1,1,19,19,0,0,0,3538803173,0.03979,0.00977,0.95117,0.95205,-0.00585,-0.00001,-0.00141,0.00602,0.95255,0.00313,0.00602,3,12212,0,5868,0.06707,0.06217,0.92691,99,1,86.827,71,1,3,4316,187491,0,0,0.000,5.475,36.395,0,0.000,15.181,14.496,0,0,1,0,3
PPG,1,88404,3537711552,122,74976,81593,81418.500,174.500,60.859,0,0,0,0,68.18,68.18,2,1,0,99.00,0,1,24,1,1,20,20,0,0,0,3538842421,0.03931,0.01099,0.95361,0.95449,-0.00585,0.00052,-0.00141,0.00604,0.95449,0.00483,0.00685,3,12231,0,5868,0.06707,0.06217,0.92691,99,1,86.827,71,1,3,4327,187491,0,0,0.000,5.475,36.395,0,0.000,15.181,14.496,0,0,1,0,3
PPG,1,88405,3537751552,149,74979,81563,81419.945,143.055,58.703,0,1,0,0,68.18,68.18,2,1,0,99.00,0,1,24,1,1,21,21,0,0,0,3538881682,0.03638,0.00513,0.95532,0.95603,-0.00692,0.00025,-0.00274,0.00744,0.95603,0.00616,0.00744,3,12242,0,5868,0.06707,0.06217,0.92691,99,1,86.827,71,1,3,2643,187491,0,0,0.000,5.475,36.395,0,0.000,15.181,14.496,0,0,1,0,3
PPG,1,88406,3537791552,121,74970,81490,81420.648,69.352,47.609,0,0,0,0,68.18,68.18,2,1,0,99.00,0,1,24,1,1,22,22,0,0,0,3538923802,0.03955,0.00732,0.95337,0.95422,-0.00532,-0.00108,-0.00141,0.00561,0.95595,0.00293,0.00596,3,12241,0,5868,0.06707,0.06217,0.92691,99,1,86.827,71,1,3,4341,187491,0,0,0.000,5.475,36.395,0,0.000,15.181,14.496,0,0,1,0,3
PPG,1,88407,3537831552,131,74948,81432,81420.766,11.234,28.891,0,0,0,0,68.18,68.18,2,1,0,99.00,0,1,24,1,1,23,23,0,0,0,3538963069,0.03662,0.00537,0.95068,0.95140,-0.00612,-0.00188,-0.00141,0.00655,0.95326,0.00185,0.00659,3,12232,0,5868,0.06707,0.06217,0.92691,99,1,86.827,71,1,3,4341,187491,0,0,0.000,5.475,36.395,0,0.000,15.181,14.496,0,0,1,0,3
PPG,1,88408,3537871552,122,74932,81410,81420.656,-10.656,7.539,0,0,0,0,68.18,68.18,2,1,0,99.00,0,1,24,1,1,24,24,0,0,0,3539002356,0.03955,0.00830,0.95044,0.95130,-0.00612,-0.00188,-0.00167,0.00661,0.95130,0.00212,0.00661,3,12246,0,5868,0.06707,0.06217,0.92691,99,1,86.827,71,1,3,4332,187491,0,0,0.000,5.475,36.395,0,0.000,15.181,14.496,0,0,1,0,3
PPG,1,88409,3537911552,124,74920,81409,81420.539,-11.539,-11.812,0,0,0,0,68.18,68.18,2,1,0,99.00,0,1,24,1,1,25,25,0,0,0,3539041591,0.04199,0.00537,0.95215,0.95309,-0.00532,-0.00001,-0.00167,0.00557,0.95309,0.00297,0.00671,3,12221,0,5868,0.06707,0.06217,0.92691,99,1,86.827,71,1,3,2618,187491,0,0,0.000,5.475,36.395,0,0.000,15.181,14.496,0,0,1,0,3
PPG,1,88410,3537951552,147,74921,81410,81420.438,-10.438,-32.719,0,0,0,0,68.18,68.18,2,1,0,99.00,0,1,24,1,1,26,26,0,0,0,3539083448,0.03516,0.00464,0.95068,0.95134,-0.00558,-0.00028,-0.00141,0.00577,0.95232,0.00174,0.00577,3,12124,0,5868,0.06707,0.06217,0.92691,99,1,86.827,71,1,3,4300,187491,0,0,0.000,5.475,36.395,0,0.000,15.181,14.496,0,0,1,0,3
PPG,1,88411,3537991552,123,74923,81423,81420.461,2.539,-55.312,0,0,0,0,68.18,68.18,2,1,0,99.00,0,1,24,1,1,27,27,0,0,0,3539122838,0.04321,0.00708,0.95239,0.95340,-0.00558,-0.00188,-0.00141,0.00606,0.95557,0.00423,0.00686,3,12118,0,5868,0.06707,0.06217,0.92691,99,1,86.827,71,1,3,4307,187491,0,0,0.000,5.475,36.395,0,0.000,15.181,14.496,0,0,1,0,3
PPG,1,88412,3538031552,142,74923,81420,81420.453,-0.453,-74.188,1,0,1,880,68.18,68.18,2,1,0,99.00,0,1,24,1,1,28,28,0,0,0,3539161880,0.04004,0.00635,0.95605,0.95691,-0.00558,-0.00001,-0.00247,0.00611,0.95691,0.01307,0.00701,3,12117,0,5868,0.06707,0.06217,0.92691,99,1,86.827,71,1,3,2597,187491,0,0,48.797,5.475,36.395,1,124.148,15.181,14.496,1,1,1,0,4
PPG,1,88413,3538071552,123,74917,81418,81420.430,-2.430,-81.117,0,0,0,0,68.18,68.18,2,1,0,99.00,0,1,24,1,1,29,29,0,0,0,3539203624,0.04028,0.00122,0.95508,0.95593,-0.00505,-0.00001,-0.00221,0.00551,0.95593,0.00439,0.00551,3,12201,0,5868,0.06707,0.06217,0.92691,99,1,86.827,71,1,3,4296,187491,0,0,0.000,5.331,34.931,0,0.000,15.135,14.396,0,0,1,0,4
PPG,1,88414,3538111552,122,74946,81459,81420.812,38.188,-76.008,0,0,0,0,68.18,68.18,2,1,0,99.00,0,1,24,1,1,30,30,0,0,0,3539242604,0.03906,0.00562,0.96143,0.96224,-0.00505,-0.00135,-0.00141,0.00541,0.96224,0.01152,0.00642,3,12131,0,5868,0.06707,0.06217,0.92691,99,1,86.827,71,1,3,4297,187491,0,0,0.000,5.331,34.931,0,0.000,15.135,14.396,0,0,1,0,4
PPG,1,88415,3538151552,136,74944,81462,81421.227,40.773,-66.039,0,0,0,0,68.18,68.18,2,1,0,99.00,0,1,24,1,1,31,31,0,0,0,3539281468,0.03882,0.00684,0.95410,0.95492,-0.00638,-0.00081,-0.00274,0.00699,0.95589,0.00635,0.00699,2,12197,0,5869,0.06707,0.06217,0.92691,99,1,86.827,71,1,3,2606,187491,0,0,0.000,5.331,34.931,0,0.000,15.135,14.396,0,0,1,0,4
PPG,1,88416,3538191552,122,74919,81463,81421.641,41.359,-55.273,0,0,0,0,68.18,68.18,2,1,0,99.00,0,1,24,1,1,0,0,0,0,0,3539323083,0.04004,0.00659,0.94336,0.94423,-0.00505,-0.00055,-0.00194,0.00544,0.95787,0.00882,0.00610,3,12122,0,5869,0.06707,0.06217,0.92691,99,1,86.827,71,1,3,4299,187491,0,0,0.000,5.331,34.931,0,0.000,15.135,14.396,0,0,1,0,4
PPG,1,88417,3538231552,122,74929,81468,81422.102,45.898,-44.336,0,0,0,0,68.18,68.18,2,1,0,99.00,0,1,24,1,1,1,1,0,0,0,3539362013,0.03638,0.00342,0.94824,0.94895,-0.00558,0.00025,-0.00194,0.00592,0.95327,0.00728,0.00617,3,12106,0,5869,0.06707,0.06217,0.92691,99,1,86.827,71,1,3,2595,187491,0,0,0.000,5.331,34.931,0,0.000,15.135,14.396,0,0,1,0,4
PPG,1,88418,3538271552,119,74940,81496,81422.844,73.156,-32.359,0,0,0,0,68.18,68.18,2,1,0,99.00,0,1,24,1,1,2,2,0,0,0,3539403553,0.03931,0.00635,0.95313,0.95396,-0.00532,-0.00001,-0.00167,0.00557,0.95450,0.00706,0.00577,3,12130,0,5869,0.06707,0.06217,0.92691,99,1,86.827,71,1,3,4299,187491,0,0,0.000,5.331,34.931,0,0.000,15.135,14.396,0,0,1,0,4
PPG,1,88419,3538311552,123,74950,81519,81423.805,95.195,-17.164,0,0,0,0,68.18,68.18,2,1,0,99.00,0,1,24,1,1,3,3,0,0,0,3539442509,0.03882,0.00342,0.95361,0.95441,-0.00558,-0.00028,-0.00221,0.00601,0.95441,0.00431,0.00628,3,12119,0,5869,0.06707,0.06217,0.92691,99,1,86.827,71,1,3,4298,187491,0,0,0.000,5.331,34.931,0,0.000,15.135,14.396,0,0,1,0,4
PPG,1,88420,3538351552,123,74960,81541,81424.977,116.023,1.508,0,0,0,0,68.18,68.18,2,1,0,99.00,0,1,24,1,1,4,4,0,0,0,3539481456,0.03931,0.00830,0.95605,0.95690,-0.00585,-0.00081,-0.00247,0.00640,0.95690,0.00846,0.00640,3,12121,0,5869,0.06707,0.06217,0.92691,99,1,86.827,71,1,3,2606,187491,0,0,0.000,5.331,34.931,0,0.000,15.135,14.396,0,0,1,0,4
PPG,1,88421,3538391552,126,74980,81566,81426.391,139.609,17.391,0,0,0,0,68.18,68.18,2,1,0,99.00,0,1,24,1,1,5,5,0,0,0,3539523023,0.04175,0.00952,0.95898,0.95994,-0.00505,-0.00028,-0.00167,0.00533,0.95994,0.00674,0.00601,3,12111,0,5869,0.06707,0.06217,0.92691,99,1,86.827,71,1,3,4298,187491,0,0,0.000,5.331,34.931,0,0.000,15.135,14.396,0,0,1,0,4
PPG,1,88422,3538431552,119,74978,81591,81428.039,162.961,34.719,0,0,0,0,68.18,68.18,2,1,0,99.00,0,1,24,1,1,6,6,0,0,0,3539561965,0.04468,0.00439,0.95557,0.95662,-0.00585,-0.00135,-0.00167,0.00623,0.95662,0.00518,0.00623,3,12125,0,5869,0.06707,0.06217,0.92691,99,1,86.827,71,1,3,2604,187491,0,0,0.000,5.331,34.931,0,0.000,15.135,14.396,0,0,1,0,4
PPG,1,88423,3538471552,122,74963,81570,81429.461,140.539,50.711,0,0,0,0,68.18,68.18,2,1,0,99.00,0,1,24,1,1,7,7,0,0,0,3539603522,0.04077,0.00708,0.95557,0.95646,-0.00638,-0.00001,-0.00221,0.00675,0.95646,0.00727,0.00675,3,12129,0,5869,0.06707,0.06217,0.92691,99,1,86.827,71,1,3,4304,187491,0,0,0.000,5.331,34.931,0,0.000,15.135,14.396,0,0,1,0,4
PPG,1,88424,3538511552,119,74943,81565,81430.812,134.188,65.961,0,0,0,0,68.18,68.18,2,1,0,99.00,0,1,24,1,1,8,8,0,0,0,3539642851,0.03833,0.00391,0.95435,0.95512,-0.00452,-0.00001,-0.00087,0.00460,0.95512,0.00577,0.00576,3,12142,0,5869,0.06707,0.06217,0.92691,99,1,86.827,71,1,3,4297,187491,0,0,0.000,5.331,34.931,0,0.000,15.135,14.396,0,0,1,0,4
PPG,1,88425,3538551552,515,74946,81590,81432.406,157.594,78.039,0,0,0,0,68.18,68.18,2,1,0,100.00,0,1,24,1,1,9,9,0,0,0,3539681940,0.04199,0.00586,0.95313,0.95407,-0.00585,-0.00055,-0.00114,0.00599,0.95564,0.00241,0.00599,3,12111,0,5869,0.07069,0.04440,0.62813,100,1,94.297,68,1,3,2594,187491,0,0,0.000,5.331,34.931,0,0.000,15.135,14.396,0,0,1,0,4
PPG,1,88426,3538591552,173,74951,81576,81433.844,142.156,81.891,0,0,0,0,68.18,68.18,2,1,0,100.00,0,1,24,1,1,10,10,0,0,0,3539723988,0.03931,0.00830,0.94653,0.94739,-0.00612,-0.00081,-0.00194,0.00647,0.95379,0.00641,0.00701,3,12151,0,5869,0.07069,0.04440,0.62813,100,1,94.297,68,1,3,4295,187491,0,0,0.000,5.331,34.931,0,0.000,15.135,14.396,0,0,1,0,4
PPG,1,88427,3538631552,148,74933,81567,81435.172,131.828,78.852,0,0,0,0,68.18,68.18,2,1,0,100.00,0,1,24,1,1,11,11,0,0,0,3539763031,0.03906,0.00806,0.95410,0.95493,-0.00585,-0.00028,0.00019,0.00586,0.95493,0.00889,0.00750,3,12114,0,5869,0.07069,0.04440,0.62813,100,1,94.297,68,1,3,4397,187491,0,0,0.000,5.331,34.931,0,0.000,15.135,14.396,0,0,1,0,4
PPG,1,88428,3538671552,146,74936,81574,81436.562,137.438,71.789,0,1,0,0,68.18,68.18,2,1,0,100.00,0,1,24,1,1,12,12,0,0,0,3539802229,0.04224,0.00586,0.94849,0.94944,-0.00692,-0.00028,0.00073,0.00696,0.95018,0.00601,0.00696,3,12192,0,5869,0.07069,0.04440,0.62813,100,1,94.297,68,1,3,4390,187491,0,0,0.000,5.331,34.931,0,0.000,15.135,14.396,0,0,1,0,4
PPG,1,88429,3538711552,137,74932,81527,81437.469,89.531,56.750,0,0,0,0,68.18,68.18,2,1,0,100.00,0,1,24,1,1,13,13,0,0,0,3539880993,0.04053,0.00806,0.94824,0.94914,-0.00585,-0.00081,-0.00141,0.00607,0.94914,0.00262,0.00686,2,63838,0,5874,0.07069,0.04440,0.62813,100,1,94.297,68,1,3,59373,187491,0,0,0.000,5.331,34.931,0,0.000,15.135,14.396,0,0,1,0,4
PPG,1,88430,3538751552,118,74883,81433,81437.422,-4.422,36.031,0,0,0,0,68.18,68.18,2,1,0,100.00,0,1,24,1,1,14,14,0,0,0,3539893222,0.04175,0.00781,0.94824,0.94919,-0.00532,-0.00108,-0.00087,0.00550,0.94919,0.00005,0.00550,1,12229,0,5874,0.07069,0.04440,0.62813,100,1,94.297,68,1,3,12141,187491,0,0,0.000,5.331,34.931,0,0.000,15.135,14.396,0,0,1,0,4
PPG,1,88431,3538791552,141,74860,81381,81436.859,-55.859,11.844,0,0,0,0,68.18,68.18,2,1,0,100.00,0,1,24,1,1,15,15,0,0,0,3539917681,0.03760,0.00464,0.95093,0.95168,-0.00612,-0.00055,-0.00167,0.00637,0.95168,0.00540,0.00637,2,12311,0,5874,0.07069,0.04440,0.62813,100,1,94.297,68,1,3,2623,187491,0,0,0.000,5.331,34.931,0,0.000,15.135,14.396,0,0,1,0,4
PPG,1,88432,3538831552,131,74859,81374,81436.234,-62.234,-16.711,0,0,0,0,68.18,68.18,2,1,0,100.00,0,1,24,1,1,16,16,0,0,0,3539962331,0.03833,0.01099,0.94971,0.95054,-0.00505,0.00025,-0.00194,0.00542,0.95343,0.00630,0.00567,3,12250,0,5875,0.07069,0.04440,0.62813,100,1,94.297,68,1,3,4337,187491,0,0,0.000,5.331,34.931,0,0.000,15.135,14.396,0,0,1,0,4
PPG,1,88433,3538871552,124,74871,81407,81435.945,-28.945,-40.312,0,0,0,0,68.18,68.18,2,1,0,100.00,0,1,24,1,1,17,17,0,0,0,3540001668,0.03955,0.01172,0.95898,0.95987,-0.00665,-0.00055,-0.00247,0.00712,0.95987,0.00876,0.00712,3,12265,0,5875,0.07069,0.04440,0.62813,100,1,94.297,68,1,3,2644,187491,0,0,0.000,5.331,34.931,0,0.000,15.135,14.396,0,0,1,0,4
PPG,1,88434,3538911552,148,74871,81397,81435.555,-38.555,-61.492,1,0,1,880,68.18,68.18,2,1,0,100.00,0,1,24,1,1,18,18,0,0,0,3540043853,0.04175,0.00195,0.94971,0.95063,-0.00665,-0.00135,-0.00194,0.00706,0.95159,0.00984,0.00771,3,12258,0,5875,0.07069,0.04440,0.62813,100,1,94.297,68,1,3,4341,187491,0,0,49.391,5.331,34.931,1,163.008,15.135,14.396,1,1,1,0,5
PPG,1,88435,3538951552,126,74875,81431,81435.508,-4.508,-80.367,0,0,0,0,68.18,68.18,2,1,0,100.00,0,1,24,1,1,19,19,0,0,0,3540083226,0.03882,0.00854,0.95532,0.95615,-0.00665,-0.00001,-0.00167,0.00686,0.95615,0.00267,0.00713,3,12262,0,5875,0.07069,0.04440,0.62813,100,1,94.297,68,1,3,4328,187491,0,0,0.000,5.208,33.687,0,0.000,15.339,14.844,0,0,1,0,5
PPG,1,88436,3538991552,131,74854,81421,81435.359,-14.359,-93.414,0,0,0,0,68.18,68.18,2,1,0,100.00,0,1,24,1,1,20,20,0,0,0,3540122611,0.04077,0.00537,0.95166,0.95255,-0.00612,-0.00108,-0.00141,0.00637,0.95328,0.00576,0.00637,3,12303,0,5875,0.07069,0.04440,0.62813,100,1,94.297,68,1,3,4340,187491,0,0,0.000,5.208,33.687,0,0.000,15.339,14.844,0,0,1,0,5
PPG,1,88437,3539031552,125,74870,81414,81435.148,-21.148,-93.430,0,0,0,0,68.18,68.18,2,1,0,100.00,0,1,24,1,1,21,21,0,0,0,3540161898,0.03711,0.00464,0.94946,0.95020,-0.00612,-0.00055,-0.00247,0.00662,0.95638,0.00886,0.00662,3,12239,0,5875,0.07069,0.04440,0.62813,100,1,94.297,68,1,3,2616,187491,0,0,0.000,5.208,33.687,0,0.000,15.339,14.844,0,0,1,0,5
PPG,1,88438,3539071552,125,74838,81396,81434.758,-38.758,-86.289,0,0,0,0,68.18,68.18,2,1,0,100.00,0,1,24,1,1,22,22,0,0,0,3540203798,0.04248,0.00659,0.95215,0.95312,-0.00638,-0.00055,-0.00087,0.00647,0.95312,0.00303,0.00677,3,12241,0,5875,0.07069,0.04440,0.62813,100,1,94.297,68,1,3,4343,187491,0,0,0.000,5.208,33.687,0,0.000,15.339,14.844,0,0,1,0,5
PPG,1,88439,3539111552,124,74833,81408,81434.492,-26.492,-75.883,0,0,0,0,68.18,68.18,2,1,0,100.00,0,1,24,1,1,23,23,0,0,0,3540243189,0.04053,0.00684,0.94897,0.94986,-0.00532,0.00025,-0.00167,0.00558,0.95477,0.00316,0.00637,3,12232,0,5875,0.07069,0.04440,0.62813,100,1,94.297,68,1,3,4332,187491,0,0,0.000,5.208,33.687,0,0.000,15.339,14.844,0,0,1,0,5
