type,session_id,sample_index,sample_time_us,processing_time_us,red_raw,ir_raw,ir_dc,ir_ac,ir_filtered,peak_custom,peak_sparkfun,peak_accepted,ibi_ms,bpm_instant,bpm_robust,hr_status,ppg_quality,ppg_quality_flags,spo2_result,spo2_status,spo2_quality,led_amplitude,sparkfun_check_count,sparkfun_available,hw_fifo_read_ptr,hw_fifo_write_ptr,hw_fifo_overflow,suspected_drops,missing_samples,mpu_time_us,ax_g,ay_g,az_g,acc_mag_g,gx_rad_s,gy_rad_s,gz_rad_s,gyro_mag_rad_s,mpu_window_peak_g,mpu_window_delta_g,mpu_window_gyro_rad_s,mpu_window_samples,mpu_dt_us,mpu_saturated,mpu_missed_deadlines,ppg_mod_ir_pct,ppg_mod_red_pct,ppg_ratio_r,spo2_maxim,spo2_maxim_valid,spo2_custom_candidate,maxim_hr,maxim_hr_valid,measurement_state,loop_last_us,loop_max_us,display_render_us,i2c_failures,red_prominence,red_threshold,red_snr,red_candidate,ir_prominence,ir_threshold,ir_snr,ir_candidate,peak_fused,detector_state,quarantine_remaining_ms,synchronized_count
PPG,3,109034,4362911552,25,525,522,0.000,0.000,0.000,0,0,0,0,0.00,nan,4,3,1,nan,3,3,24,1,1,10,10,0,0,0,69297373,0.03735,0.00269,0.95728,0.95801,-0.00638,-0.00161,-0.00247,0.00703,0.95801,0.00963,0.00750,3,12197,0,7146,0.00000,0.00000,0.00000,0,0,nan,0,0,0,4343,187491,0,0,0.000,0.000,0.000,0,0.000,0.000,0.000,0,0,4,0,0
PPG,3,109035,4362951552,25,532,525,0.000,0.000,0.000,0,0,0,0,0.00,nan,4,3,1,nan,3,3,24,1,1,11,11,0,0,0,69336300,0.04053,0.00879,0.94800,0.94890,-0.00638,-0.00028,-0.00221,0.00676,0.95273,0.00528,0.00737,3,12255,0,7146,0.00000,0.00000,0.00000,0,0,nan,0,0,0,4337,187491,0,0,0.000,0.000,0.000,0,0.000,0.000,0.000,0,0,4,0,0
PPG,3,109036,4362991552,24,520,530,0.000,0.000,0.000,0,0,0,0,0.00,nan,4,3,1,nan,3,3,24,1,1,12,12,0,0,0,69379516,0.03613,0.00464,0.94995,0.95065,-0.00612,-0.00055,-0.00141,0.00630,0.95863,0.00973,0.00726,3,12269,0,7146,0.00000,0.00000,0.00000,0,0,nan,0,0,0,2601,187491,0,0,0.000,0.000,0.000,0,0.000,0.000,0.000,0,0,4,0,0
PPG,3,109037,4363031552,26,532,538,0.000,0.000,0.000,0,0,0,0,0.00,nan,4,3,1,nan,3,3,24,1,1,13,13,0,0,0,69418423,0.03833,0.00391,0.95581,0.95659,-0.00558,-0.00001,-0.00167,0.00583,0.95734,0.00669,0.00594,3,12267,0,7146,0.00000,0.00000,0.00000,0,0,nan,0,0,0,4334,187491,0,0,0.000,0.000,0.000,0,0.000,0.000,0.000,0,0,4,0,0
PPG,3,109038,4363071552,26,529,536,0.000,0.000,0.000,0,0,0,0,0.00,nan,4,3,1,nan,3,3,24,1,1,14,14,0,0,0,69457266,0.03638,0.00708,0.95264,0.95336,-0.00505,-0.00055,-0.00087,0.00516,0.95872,0.01084,0.00662,3,12191,0,7146,0.00000,0.00000,0.00000,0,0,nan,0,0,0,4332,187491,0,0,0.000,0.000,0.000,0,0.000,0.000,0.000,0,0,4,0,0
PPG,3,109039,4363111552,25,545,529,0.000,0.000,0.000,0,0,0,0,0.00,nan,4,3,1,nan,3,3,24,1,1,15,15,0,0,0,69496218,0.03540,0.00586,0.94800,0.94868,-0.00532,-0.00081,-0.00167,0.00563,0.95257,0.00390,0.00631,3,12266,0,7146,0.00000,0.00000,0.00000,0,0,nan,0,0,0,2632,187491,0,0,0.000,0.000,0.000,0,0.000,0.000,0.000,0,0,4,0,0
PPG,3,109040,4363151552,28,529,520,0.000,0.000,0.000,0,0,0,0,0.00,nan,4,3,1,nan,3,3,24,1,1,16,16,0,0,0,69537833,0.03613,0.00244,0.95264,0.95332,-0.00532,-0.00001,-0.00194,0.00566,0.95469,0.00631,0.00566,3,12256,0,7146,0.00000,0.00000,0.00000,0,0,nan,0,0,0,4315,187491,0,0,0.000,0.000,0.000,0,0.000,0.000,0.000,0,0,4,0,0
PPG,3,109041,4363191552,27,537,537,0.000,0.000,0.000,0,0,0,0,0.00,nan,4,3,1,nan,3,3,24,1,1,17,17,0,0,0,69576645,0.03735,0.00415,0.94629,0.94704,-0.00558,-0.00055,-0.00167,0.00586,0.95701,0.00998,0.00586,3,12239,0,7146,0.00000,0.00000,0.00000,0,0,nan,0,0,0,4334,187491,0,0,0.000,0.000,0.000,0,0.000,0.000,0.000,0,0,4,0,0
PPG,3,109042,4363231552,25,535,522,0.000,0.000,0.000,0,0,0,0,0.00,nan,4,3,1,nan,3,3,24,1,1,18,18,0,0,0,69615546,0.03906,0.00830,0.94385,0.94469,-0.00505,-0.00028,-0.00141,0.00525,0.95555,0.00852,0.00653,3,12267,0,7146,0.00000,0.00000,0.00000,0,0,nan,0,0,0,2641,187491,0,0,0.000,0.000,0.000,0,0.000,0.000,0.000,0,0,4,0,0
PPG,3,109043,4363271552,25,528,528,0.000,0.000,0.000,0,0,0,0,0.00,nan,4,3,1,nan,3,3,24,1,1,19,19,0,0,0,69657024,0.03882,0.00537,0.94629,0.94710,-0.00532,-0.00028,-0.00167,0.00558,0.95580,0.01111,0.00597,3,12245,0,7146,0.00000,0.00000,0.00000,0,0,nan,0,0,0,4342,187491,0,0,0.000,0.000,0.000,0,0.000,0.000,0.000,0,0,4,0,0
PPG,3,109044,4363311552,26,535,532,0.000,0.000,0.000,0,0,0,0,0.00,nan,4,3,1,nan,3,3,24,1,1,20,20,0,0,0,69695860,0.04004,0.00537,0.95435,0.95520,-0.00505,-0.00001,-0.00247,0.00562,0.95520,0.00594,0.00602,3,12238,0,7146,0.00000,0.00000,0.00000,0,0,nan,0,0,0,2643,187491,0,0,0.000,0.000,0.000,0,0.000,0.000,0.000,0,0,4,0,0
PPG,3,109045,4363351552,26,525,530,0.000,0.000,0.000,0,0,0,0,0.00,nan,4,3,1,nan,3,3,24,1,1,21,21,0,0,0,69737393,0.03979,0.00903,0.96289,0.96376,-0.00479,0.00052,-0.00007,0.00481,0.96376,0.01835,0.00654,3,12243,0,7146,0.00000,0.00000,0.00000,0,0,nan,0,0,0,4328,187491,0,0,0.000,0.000,0.000,0,0.000,0.000,0.000,0,0,4,0,0
PPG,3,109046,4363391552,26,535,537,0.000,0.000,0.000,0,0,0,0,0.00,nan,4,3,1,nan,3,3,24,1,1,22,22,0,0,0,69776254,0.03931,0.00586,0.95020,0.95103,-0.00638,-0.00001,-0.00114,0.00648,0.95164,0.01211,0.00648,3,12247,0,7146,0.00000,0.00000,0.00000,0,0,nan,0,0,0,2629,187491,0,0,0.000,0.000,0.000,0,0.000,0.000,0.000,0,0,4,0,0
PPG,3,109047,4363431552,25,531,526,0.000,0.000,0.000,0,0,0,0,0.00,nan,4,3,1,nan,3,3,24,1,1,23,23,0,0,0,69817726,0.03491,0.00684,0.94849,0.94915,-0.00532,-0.00055,-0.00247,0.00589,0.95214,0.00288,0.00609,3,12313,0,7146,0.00000,0.00000,0.00000,0,0,nan,0,0,0,4311,187491,0,0,0.000,0.000,0.000,0,0.000,0.000,0.000,0,0,4,0,0
PPG,3,109048,4363471552,25,535,532,0.000,0.000,0.000,0,0,0,0,0.00,nan,4,3,1,nan,3,3,24,1,1,24,24,0,0,0,69856477,0.04395,0.00488,0.94678,0.94781,-0.00505,-0.00161,-0.00167,0.00556,0.95484,0.01244,0.00635,3,12310,0,7146,0.00000,0.00000,0.00000,0,0,nan,0,0,0,4304,187491,0,0,0.000,0.000,0.000,0,0.000,0.000,0.000,0,0,4,0,0
PPG,3,109049,4363511552,26,544,529,0.000,0.000,0.000,0,0,0,0,0.00,nan,4,3,1,nan,3,3,24,1,1,25,25,0,0,0,69895040,0.03418,0.00830,0.94775,0.94841,-0.00638,-0.00028,-0.00141,0.00654,0.95297,0.00516,0.00654,3,12118,0,7146,0.00000,0.00000,0.00000,0,0,nan,0,0,0,2599,187491,0,0,0.000,0.000,0.000,0,0.000,0.000,0.000,0,0,4,0,0
PPG,3,109050,4363551552,28,526,524,0.000,0.000,0.000,0,0,0,0,0.00,nan,4,3,1,nan,3,3,24,1,1,26,26,0,0,0,69936239,0.03809,0.00366,0.94824,0.94901,-0.00479,-0.00055,-0.00194,0.00519,0.95193,0.00352,0.00558,3,12175,0,7146,0.00000,0.00000,0.00000,0,0,nan,0,0,0,2601,187491,0,0,0.000,0.000,0.000,0,0.000,0.000,0.000,0,0,4,0,0
PPG,3,109051,4363591552,25,534,523,0.000,0.000,0.000,0,0,0,0,0.00,nan,4,3,1,nan,3,3,24,1,1,27,27,0,0,0,69977352,0.03882,0.00537,0.95190,0.95271,-0.00558,-0.00108,-0.00274,0.00631,0.95464,0.00506,0.00671,3,12121,0,7146,0.00000,0.00000,0.00000,0,0,nan,0,0,0,4304,187491,0,0,0.000,0.000,0.000,0,0.000,0.000,0.000,0,0,4,0,0
PPG,3,109052,4363631552,25,526,533,0.000,0.000,0.000,0,0,0,0,0.00,nan,4,3,1,nan,3,3,24,1,1,28,28,0,0,0,70015920,0.04224,0.00366,0.95630,0.95724,-0.00585,-0.00108,-0.00114,0.00606,0.95724,0.00536,0.00625,3,12130,0,7146,0.00000,0.00000,0.00000,0,0,nan,0,0,0,2607,187491,0,0,0.000,0.000,0.000,0,0.000,0.000,0.000,0,0,4,0,0
PPG,3,109053,4363671552,25,539,542,0.000,0.000,0.000,0,0,0,0,0.00,nan,4,3,1,nan,3,3,24,1,1,29,29,0,0,0,70057139,0.03662,0.00342,0.95630,0.95701,-0.00585,-0.00188,-0.00274,0.00673,0.95701,0.00725,0.00708,3,12126,0,7146,0.00000,0.00000,0.00000,0,0,nan,0,0,0,4305,187491,0,0,0.000,0.000,0.000,0,0.000,0.000,0.000,0,0,4,0,0
PPG,3,109054,4363711552,25,522,516,0.000,0.000,0.000,0,0,0,0,0.00,nan,4,3,1,nan,3,3,24,1,1,30,30,0,0,0,70095680,0.03833,0.00464,0.94556,0.94634,-0.00665,-0.00028,-0.00114,0.00675,0.95348,0.00731,0.00675,3,12137,0,7146,0.00000,0.00000,0.00000,0,0,nan,0,0,0,2601,187491,0,0,0.000,0.000,0.000,0,0.000,0.000,0.000,0,0,4,0,0
PPG,3,109055,4363751552,26,527,524,0.000,0.000,0.000,0,0,0,0,0.00,nan,4,3,1,nan,3,3,24,1,1,31,31,0,0,0,70136884,0.03638,0.00610,0.94629,0.94701,-0.00532,0.00025,-0.00141,0.00551,0.95355,0.00654,0.00635,3,12183,0,7146,0.00000,0.00000,0.00000,0,0,nan,0,0,0,4301,187491,0,0,0.000,0.000,0.000,0,0.000,0.000,0.000,0,0,4,0,0
PPG,3,109056,4363791552,25,533,527,0.000,0.000,0.000,0,0,0,0,0.00,nan,4,3,1,nan,3,3,24,1,1,0,0,0,0,0,70175423,0.03809,0.00830,0.94946,0.95026,-0.00558,-0.00001,-0.00167,0.00583,0.95414,0.00396,0.00583,3,12129,0,7146,0.00000,0.00000,0.00000,0,0,nan,0,0,0,2605,187491,0,0,0.000,0.000,0.000,0,0.000,0.000,0.000,0,0,4,0,0
PPG,3,109057,4363831552,25,533,536,0.000,0.000,0.000,0,0,0,0,0.00,nan,4,3,1,nan,3,3,24,1,1,1,1,0,0,0,70216536,0.03906,0.00806,0.95142,0.95225,-0.00558,0.00025,-0.00141,0.00576,0.95231,0.00194,0.00576,3,12120,0,7146,0.00000,0.00000,0.00000,0,0,nan,0,0,0,4303,187491,0,0,0.000,0.000,0.000,0,0.000,0.000,0.000,0,0,4,0,0
PPG,3,109058,4363871552,25,536,535,0.000,0.000,0.000,0,0,0,0,0.00,nan,4,3,1,nan,3,3,24,1,1,2,2,0,0,0,70292983,0.04199,0.00635,0.95068,0.95163,-0.00505,-0.00081,-0.00247,0.00568,0.95163,0.00861,0.00568,2,62202,0,7151,0.00000,0.00000,0.00000,0,0,nan,0,0,0,57774,187491,0,0,0.000,0.000,0.000,0,0.000,0.000,0.000,0,0,4,0,0
PPG,3,109059,4363911552,25,536,532,0.000,0.000,0.000,0,0,0,0,0.00,nan,4,3,1,nan,3,3,24,1,1,3,3,0,0,0,70292983,0.04199,0.00635,0.95068,0.95163,-0.00505,-0.00081,-0.00247,0.00568,0.00000,0.00000,0.00000,0,62202,0,7151,0.00000,0.00000,0.00000,0,0,nan,0,0,0,11673,187491,0,0,0.000,0.000,0.000,0,0.000,0.000,0.000,0,0,4,0,0
PPG,3,109060,4363951552,25,535,533,0.000,0.000,0.000,0,0,0,0,0.00,nan,4,3,1,nan,3,3,24,1,1,4,4,0,0,0,70338887,0.03589,0.00635,0.94971,0.95041,-0.00452,0.00025,-0.00141,0.00474,0.95452,0.00599,0.00709,3,12151,0,7152,0.00000,0.00000,0.00000,0,0,nan,0,0,0,4302,187491,0,0,0.000,0.000,0.000,0,0.000,0.000,0.000,0,0,4,0,0
PPG,3,109061,4363991552,24,536,517,0.000,0.000,0.000,0,0,0,0,0.00,nan,4,3,1,nan,3,3,24,1,1,5,5,0,0,0,70381550,0.03638,0.00366,0.95459,0.95529,-0.00612,-0.00081,-0.00300,0.00686,0.95529,0.00504,0.00686,3,12161,0,7152,0.00000,0.00000,0.00000,0,0,nan,0,0,0,2585,187491,0,0,0.000,0.000,0.000,0,0.000,0.000,0.000,0,0,4,0,0
PPG,3,109062,4364031552,23,528,515,0.000,0.000,0.000,0,0,0,0,0.00,nan,4,3,1,nan,3,3,24,1,1,6,6,0,0,0,70420114,0.04126,0.00537,0.95117,0.95208,-0.00532,-0.00108,-0.00221,0.00586,0.95579,0.00321,0.00728,3,12121,0,7152,0.00000,0.00000,0.00000,0,0,nan,0,0,0,2590,187491,0,0,0.000,0.000,0.000,0,0.000,0.000,0.000,0,0,4,0,0
PPG,3,109063,4364071552,25,542,529,0.000,0.000,0.000,0,0,0,0,0.00,nan,4,3,1,nan,3,3,24,1,1,7,7,0,0,0,70458672,0.04004,0.00513,0.95093,0.95178,-0.00558,0.00079,-0.00221,0.00606,0.95388,0.00550,0.00639,3,12120,0,7152,0.00000,0.00000,0.00000,0,0,nan,0,0,0,4300,187491,0,0,0.000,0.000,0.000,0,0.000,0.000,0.000,0,0,4,0,0
PPG,3,109064,4364111552,25,536,536,0.000,0.000,0.000,0,0,0,0,0.00,nan,4,3,1,nan,3,3,24,1,1,8,8,0,0,0,70497191,0.03662,0.01099,0.94922,0.94999,-0.00479,-0.00081,-0.00194,0.00523,0.95491,0.00526,0.00629,3,12115,0,7152,0.00000,0.00000,0.00000,0,0,nan,0,0,0,4294,187491,0,0,0.000,0.000,0.000,0,0.000,0.000,0.000,0,0,4,0,0
PPG,3,109065,4364151552,25,515,538,0.000,0.000,0.000,0,0,0,0,0.00,nan,4,3,1,nan,3,3,24,1,1,9,9,0,0,0,70535709,0.03320,0.00708,0.95215,0.95275,-0.00452,-0.00055,-0.00167,0.00485,0.95658,0.00705,0.00568,3,12126,0,7152,0.00000,0.00000,0.00000,0,0,nan,0,0,0,2596,187491,0,0,0.000,0.000,0.000,0,0.000,0.000,0.000,0,0,4,0,0
PPG,3,109066,4364191552,25,517,515,0.000,0.000,0.000,0,0,0,0,0.00,nan,4,3,1,nan,3,3,24,1,1,10,10,0,0,0,70576862,0.03931,0.00610,0.94995,0.95078,-0.00532,-0.00108,-0.00247,0.00596,0.95078,0.00895,0.00615,3,12120,0,7152,0.00000,0.00000,0.00000,0,0,nan,0,0,0,4300,187491,0,0,0.000,0.000,0.000,0,0.000,0.000,0.000,0,0,4,0,0
PPG,3,109067,4364231552,25,527,520,0.000,0.000,0.000,0,0,0,0,0.00,nan,4,3,1,nan,3,3,24,1,1,11,11,0,0,0,70615421,0.03931,0.00781,0.95190,0.95275,-0.00585,-0.00028,-0.00114,0.00597,0.95721,0.00513,0.00660,3,12132,0,7152,0.00000,0.00000,0.00000,0,0,nan,0,0,0,2601,187491,0,0,0.000,0.000,0.000,0,0.000,0.000,0.000,0,0,4,0,0
PPG,3,109068,4364271552,25,537,531,0.000,0.000,0.000,0,0,0,0,0.00,nan,4,3,1,nan,3,3,24,1,1,12,12,0,0,0,70656561,0.03735,0.00464,0.95044,0.95118,-0.00425,-0.00108,-0.00087,0.00447,0.95678,0.00891,0.00677,3,12130,0,7152,0.00000,0.00000,0.00000,0,0,nan,0,0,0,2600,187491,0,0,0.000,0.000,0.000,0,0.000,0.000,0.000,0,0,4,0,0
PPG,3,109069,4364311552,25,535,537,0.000,0.000,0.000,0,0,0,0,0.00,nan,4,3,1,nan,3,3,24,1,1,13,13,0,0,0,70697668,0.03687,0.00854,0.95532,0.95607,-0.00612,-0.00081,-0.00141,0.00633,0.95607,0.00448,0.00686,3,12114,0,7152,0.00000,0.00000,0.00000,0,0,nan,0,0,0,4299,187491,0,0,0.000,0.000,0.000,0,0.000,0.000,0.000,0,0,4,0,0
PPG,3,109070,4364351552,25,539,534,0.000,0.000,0.000,0,0,0,0,0.00,nan,4,3,1,nan,3,3,24,1,1,14,14,0,0,0,70736185,0.03906,0.00757,0.94873,0.94956,-0.00665,-0.00028,-0.00247,0.00710,0.95322,0.00681,0.00710,3,12120,0,7152,0.00000,0.00000,0.00000,0,0,nan,0,0,0,2618,187491,0,0,0.000,0.000,0.000,0,0.000,0.000,0.000,0,0,4,0,0
PPG,3,109071,4364391552,25,532,535,0.000,0.000,0.000,0,0,0,0,0.00,nan,4,3,1,nan,3,3,24,1,1,15,15,0,0,0,70777309,0.04004,0.00488,0.94531,0.94617,-0.00532,-0.00081,-0.00167,0.00563,0.95196,0.00761,0.00695,3,12118,0,7152,0.00000,0.00000,0.00000,0,0,nan,0,0,0,4295,187491,0,0,0.000,0.000,0.000,0,0.000,0.000,0.000,0,0,4,0,0
PPG,3,109072,4364431552,25,521,528,0.000,0.000,0.000,0,0,0,0,0.00,nan,4,3,1,nan,3,3,24,1,1,16,16,0,0,0,70815841,0.03711,0.00635,0.95337,0.95411,-0.00692,0.00052,-0.00274,0.00746,0.95411,0.00614,0.00746,3,12131,0,7152,0.00000,0.00000,0.00000,0,0,nan,0,0,0,2598,187491,0,0,0.000,0.000,0.000,0,0.000,0.000,0.000,0,0,4,0,0
PPG,3,109073,4364471552,25,520,515,0.000,0.000,0.000,0,0,0,0,0.00,nan,4,3,1,nan,3,3,24,1,1,17,17,0,0,0,70857183,0.04199,0.00586,0.95654,0.95748,-0.00638,-0.00055,-0.00194,0.00669,0.95748,0.00784,0.00695,3,12290,0,7152,0.00000,0.00000,0.00000,0,0,nan,0,0,0,4294,187491,0,0,0.000,0.000,0.000,0,0.000,0.000,0.000,0,0,4,0,0
PPG,3,109074,4364511552,25,537,536,0.000,0.000,0.000,0,0,0,0,0.00,nan,4,3,1,nan,3,3,24,1,1,18,18,0,0,0,70895866,0.03613,0.00366,0.95557,0.95626,-0.00505,-0.00001,-0.00247,0.00562,0.95626,0.00644,0.00661,3,12108,0,7152,0.00000,0.00000,0.00000,0,0,nan,0,0,0,2605,187491,0,0,0.000,0.000,0.000,0,0.000,0.000,0.000,0,0,4,0,0
PPG,3,109075,4364551552,25,544,535,0.000,0.000,0.000,0,0,0,0,0.00,nan,4,3,1,nan,3,3,24,1,1,19,19,0,0,0,70937043,0.04053,0.00708,0.95483,0.95572,-0.00505,-0.00055,-0.00167,0.00535,0.95712,0.00385,0.00558,3,12108,0,7152,0.00000,0.00000,0.00000,0,0,nan,0,0,0,4301,187491,0,0,0.000,0.000,0.000,0,0.000,0.000,0.000,0,0,4,0,0
PPG,3,109076,4364591552,25,545,530,0.000,0.000,0.000,0,0,0,0,0.00,nan,4,3,1,nan,3,3,24,1,1,20,20,0,0,0,70975681,0.04224,0.00488,0.95264,0.95359,-0.00612,-0.00108,-0.00114,0.00632,0.95608,0.00334,0.00642,3,12115,0,7152,0.00000,0.00000,0.00000,0,0,nan,0,0,0,2658,187491,0,0,0.000,0.000,0.000,0,0.000,0.000,0.000,0,0,4,0,0
PPG,3,109077,4364631552,25,529,536,0.000,0.000,0.000,0,0,0,0,0.00,nan,4,3,1,nan,3,3,24,1,1,21,21,0,0,0,71017106,0.03613,0.00415,0.94849,0.94918,-0.00532,-0.00055,-0.00114,0.00547,0.95233,0.00314,0.00615,3,12299,0,7152,0.00000,0.00000,0.00000,0,0,nan,0,0,0,4305,187491,0,0,0.000,0.000,0.000,0,0.000,0.000,0.000,0,0,4,0,0
PPG,3,109078,4364671552,26,540,526,0.000,0.000,0.000,0,0,0,0,0.00,nan,4,3,1,nan,3,3,24,1,1,22,22,0,0,0,71055905,0.03540,0.00830,0.95142,0.95211,-0.00612,-0.00055,-0.00194,0.00644,0.95943,0.00732,0.00644,3,12410,0,7152,0.00000,0.00000,0.00000,0,0,nan,0,0,0,2632,187491,0,0,0.000,0.000,0.000,0,0.000,0.000,0.000,0,0,4,0,0
PPG,3,109079,4364711552,26,533,544,0.000,0.000,0.000,0,0,0,0,0.00,nan,4,3,1,nan,3,3,24,1,1,23,23,0,0,0,71097382,0.04028,0.00732,0.95215,0.95303,-0.00505,-0.00055,-0.00194,0.00544,0.95384,0.00307,0.00667,3,12255,0,7152,0.00000,0.00000,0.00000,0,0,nan,0,0,0,4345,187491,0,0,0.000,0.000,0.000,0,0.000,0.000,0.000,0,0,4,0,0
PPG,3,109080,4364751552,28,535,534,0.000,0.000,0.000,0,0,0,0,0.00,nan,4,3,1,nan,3,3,24,1,1,24,24,0,0,0,71136325,0.04102,0.00879,0.95923,0.96015,-0.00638,-0.00001,-0.00194,0.00667,0.96015,0.01324,0.00667,3,12250,0,7152,0.00000,0.00000,0.00000,0,0,nan,0,0,0,2610,187491,0,0,0.000,0.000,0.000,0,0.000,0.000,0.000,0,0,4,0,0
PPG,3,109081,4364791552,29,528,529,0.000,0.000,0.000,0,0,0,0,0.00,nan,4,3,1,nan,3,3,24,1,1,25,25,0,0,0,71177783,0.03882,0.00928,0.95264,0.95347,-0.00612,-0.00161,-0.00194,0.00662,0.95347,0.01032,0.00662,3,12243,0,7152,0.00000,0.00000,0.00000,0,0,nan,0,0,0,4341,187491,0,0,0.000,0.000,0.000,0,0.000,0.000,0.000,0,0,4,0,0
PPG,3,109082,4364831552,25,532,530,0.000,0.000,0.000,0,0,0,0,0.00,nan,4,3,1,nan,3,3,24,1,1,26,26,0,0,0,71216675,0.03857,0.01074,0.95215,0.95299,-0.00665,-0.00081,-0.00300,0.00734,0.95299,0.00227,0.00734,3,12243,0,7152,0.00000,0.00000,0.00000,0,0,nan,0,0,0,2614,187491,0,0,0.000,0.000,0.000,0,0.000,0.000,0.000,0,0,4,0,0
PPG,3,109083,4364871552,25,544,527,0.000,0.000,0.000,0,0,0,0,0.00,nan,4,3,1,nan,3,3,24,1,1,27,27,0,0,0,71258181,0.03711,0.00610,0.95532,0.95606,-0.00505,-0.00028,-0.00274,0.00575,0.95642,0.00343,0.00617,3,12284,0,7152,0.00000,0.00000,0.00000,0,0,nan,0,0,0,4358,187491,0,0,0.000,0.000,0.000,0,0.000,0.000,0.000,0,0,4,0,0
PPG,3,109084,4364911552,25,528,531,0.000,0.000,0.000,0,0,0,0,0.00,nan,4,3,1,nan,3,3,24,1,1,28,28,0,0,0,71297079,0.03784,0.00415,0.95386,0.95462,-0.00532,-0.00108,-0.00194,0.00576,0.95462,0.00728,0.00633,3,12262,0,7152,0.00000,0.00000,0.00000,0,0,nan,0,0,0,4327,187491,0,0,0.000,0.000,0.000,0,0.000,0.000,0.000,0,0,4,0,0
PPG,3,109085,4364951552,25,537,527,0.000,0.000,0.000,0,0,0,0,0.00,nan,4,3,1,nan,3,3,24,1,1,29,29,0,0,0,71335885,0.03833,0.00732,0.95068,0.95148,-0.00558,-0.00055,-0.00114,0.00573,0.95410,0.00651,0.00573,3,12265,0,7152,0.00000,0.00000,0.00000,0,0,nan,0,0,0,2644,187491,0,0,0.000,0.000,0.000,0,0.000,0.000,0.000,0,0,4,0,0
PPG,3,109086,4364991552,25,536,533,0.000,0.000,0.000,0,0,0,0,0.00,nan,4,3,1,nan,3,3,24,1,1,30,30,0,0,0,71372244,0.03711,0.00366,0.95288,0.95361,-0.00558,-0.00055,-0.00194,0.00594,0.95395,0.00246,0.00594,2,19377,0,7152,0.00000,0.00000,0.00000,0,0,nan,0,0,0,2623,187491,0,0,0.000,0.000,0.000,0,0.000,0.000,0.000,0,0,4,0,0
PPG,3,109087,4365031552,25,524,521,0.000,0.000,0.000,0,0,0,0,0.00,nan,4,3,1,nan,3,3,24,1,1,31,31,0,0,0,71416427,0.03979,0.00391,0.94751,0.94835,-0.00638,-0.00055,-0.00141,0.00656,0.95094,0.00267,0.00656,3,12240,0,7152,0.00000,0.00000,0.00000,0,0,nan,0,0,0,2636,187491,0,0,0.000,0.000,0.000,0,0.000,0.000,0.000,0,0,4,0,0
PPG,3,109088,4365071552,26,526,535,0.000,0.000,0.000,0,0,0,0,0.00,nan,4,3,1,nan,3,3,24,1,1,0,0,0,0,0,71457880,0.03735,0.00781,0.94873,0.94950,-0.00558,-0.00028,-0.00247,0.00611,0.95792,0.00957,0.00681,3,12235,0,7152,0.00000,0.00000,0.00000,0,0,nan,0,0,0,4337,187491,0,0,0.000,0.000,0.000,0,0.000,0.000,0.000,0,0,4,0,0
PPG,3,109089,4365111552,25,534,529,0.000,0.000,0.000,0,0,0,0,0.00,nan,4,3,1,nan,3,3,24,1,1,1,1,0,0,0,71496743,0.03638,0.00391,0.95435,0.95505,-0.00585,-0.00135,-0.00221,0.00640,0.95545,0.00586,0.00640,3,12239,0,7152,0.00000,0.00000,0.00000,0,0,nan,0,0,0,4337,187491,0,0,0.000,0.000,0.000,0,0.000,0.000,0.000,0,0,4,0,0
PPG,3,109090,4365151552,25,540,537,0.000,0.000,0.000,0,0,0,0,0.00,nan,4,3,1,nan,3,3,24,1,1,2,2,0,0,0,71535518,0.03442,0.00659,0.95483,0.95548,-0.00638,-0.00001,-0.00221,0.00675,0.95548,0.00286,0.00748,3,12225,0,7152,0.00000,0.00000,0.00000,0,0,nan,0,0,0,2624,187491,0,0,0.000,0.000,0.000,0,0.000,0.000,0.000,0,0,4,0,0
PPG,3,109091,4365191552,26,532,524,0.000,0.000,0.000,0,0,0,0,0.00,nan,4,3,1,nan,3,3,24,1,1,3,3,0,0,0,71577024,0.03955,0.00391,0.95435,0.95517,-0.00585,0.00052,-0.00221,0.00627,0.95517,0.00205,0.00627,3,12259,0,7152,0.00000,0.00000,0.00000,0,0,nan,0,0,0,4342,187491,0,0,0.000,0.000,0.000,0,0.000,0.000,0.000,0,0,4,0,0
PPG,3,109092,4365231552,26,526,533,0.000,0.000,0.000,0,0,0,0,0.00,nan,4,3,1,nan,3,3,24,1,1,4,4,0,0,0,71615869,0.03735,0.00586,0.94971,0.95046,-0.00505,-0.00081,-0.00247,0.00568,0.95094,0.00435,0.00568,3,12235,0,7152,0.00000,0.00000,0.00000,0,0,nan,0,0,0,2637,187491,0,0,0.000,0.000,0.000,0,0.000,0.000,0.000,0,0,4,0,0
PPG,3,109093,4365271552,25,532,521,0.000,0.000,0.000,0,0,0,0,0.00,nan,4,3,1,nan,3,3,24,1,1,5,5,0,0,0,71657358,0.03589,0.00610,0.94922,0.94992,-0.00692,-0.00028,-0.00141,0.00706,0.94992,0.00094,0.00706,3,12246,0,7152,0.00000,0.00000,0.00000,0,0,nan,0,0,0,4338,187491,0,0,0.000,0.000,0.000,0,0.000,0.000,0.000,0,0,4,0,0
PPG,3,109094,4365311552,25,531,535,0.000,0.000,0.000,0,0,0,0,0.00,nan,4,3,1,nan,3,3,24,1,1,6,6,0,0,0,71696039,0.03882,0.00635,0.94458,0.94540,-0.00612,-0.00081,-0.00167,0.00639,0.95175,0.00635,0.00639,3,12193,0,7152,0.00000,0.00000,0.00000,0,0,nan,0,0,0,2637,187491,0,0,0.000,0.000,0.000,0,0.000,0.000,0.000,0,0,4,0,0
PPG,3,109095,4365351552,25,525,530,0.000,0.000,0.000,0,0,0,0,0.00,nan,4,3,1,nan,3,3,24,1,1,7,7,0,0,0,71737278,0.03638,0.00586,0.94531,0.94603,-0.00612,-0.00081,-0.00247,0.00665,0.95708,0.01105,0.00667,3,12155,0,7152,0.00000,0.00000,0.00000,0,0,nan,0,0,0,4298,187491,0,0,0.000,0.000,0.000,0,0.000,0.000,0.000,0,0,4,0,0
PPG,3,109096,4365391552,26,534,540,0.000,0.000,0.000,0,0,0,0,0.00,nan,4,3,1,nan,3,3,24,1,1,8,8,0,0,0,71775843,0.03882,0.00732,0.95410,0.95492,-0.00532,-0.00055,-0.00167,0.00560,0.95492,0.00566,0.00639,3,12161,0,7152,0.00000,0.00000,0.00000,0,0,nan,0,0,0,2642,187491,0,0,0.000,0.000,0.000,0,0.000,0.000,0.000,0,0,4,0,0
PPG,3,109097,4365431552,25,539,546,0.000,0.000,0.000,0,0,0,0,0.00,nan,4,3,1,nan,3,3,24,1,1,9,9,0,0,0,71817042,0.04175,0.01074,0.94995,0.95093,-0.00612,-0.00135,-0.00141,0.00642,0.95804,0.00748,0.00649,3,12148,0,7152,0.00000,0.00000,0.00000,0,0,nan,0,0,0,4302,187491,0,0,0.000,0.000,0.000,0,0.000,0.000,0.000,0,0,4,0,0
PPG,3,109098,4365471552,25,523,513,0.000,0.000,0.000,0,0,0,0,0.00,nan,4,3,1,nan,3,3,24,1,1,10,10,0,0,0,71855554,0.03540,0.00415,0.95264,0.95330,-0.00532,-0.00001,-0.00114,0.00544,0.95330,0.00189,0.00637,3,12127,0,7152,0.00000,0.00000,0.00000,0,0,nan,0,0,0,2604,187491,0,0,0.000,0.000,0.000,0,0.000,0.000,0.000,0,0,4,0,0
PPG,3,109099,4365511552,25,536,523,0.000,0.000,0.000,0,0,0,0,0.00,nan,4,3,1,nan,3,3,24,1,1,11,11,0,0,0,71896680,0.03516,0.00781,0.95483,0.95551,-0.00479,-0.00028,-0.00194,0.00517,0.95551,0.00267,0.00672,3,12115,0,7152,0.00000,0.00000,0.00000,0,0,nan,0,0,0,2608,187491,0,0,0.000,0.000,0.000,0,0.000,0.000,0.000,0,0,4,0,0
PPG,3,109100,4365551552,26,536,523,0.000,0.000,0.000,0,0,0,0,0.00,nan,4,3,1,nan,3,3,24,1,1,12,12,0,0,0,71937808,0.03687,0.00562,0.95068,0.95141,-0.00585,-0.00001,-0.00167,0.00609,0.95279,0.00273,0.00623,3,12128,0,7152,0.00000,0.00000,0.00000,0,0,nan,0,0,0,4299,187491,0,0,0.000,0.000,0.000,0,0.000,0.000,0.000,0,0,4,0,0
PPG,3,109101,4365591552,25,547,531,0.000,0.000,0.000,0,0,0,0,0.00,nan,4,3,1,nan,3,3,24,1,1,13,13,0,0,0,71976355,0.03955,0.00562,0.95239,0.95323,-0.00558,0.00025,-0.00167,0.00583,0.95802,0.00668,0.00614,3,12153,0,7152,0.00000,0.00000,0.00000,0,0,nan,0,0,0,2607,187491,0,0,0.000,0.000,0.000,0,0.000,0.000,0.000,0,0,4,0,0
PPG,3,109102,4365631552,25,536,543,0.000,0.000,0.000,0,0,0,0,0.00,nan,4,3,1,nan,3,3,24,1,1,14,14,0,0,0,72017481,0.03760,0.00220,0.95508,0.95582,-0.00505,-0.00055,-0.00141,0.00527,0.95750,0.00936,0.00597,3,12129,0,7152,0.00000,0.00000,0.00000,0,0,nan,0,0,0,4316,187491,0,0,0.000,0.000,0.000,0,0.000,0.000,0.000,0,0,4,0,0
PPG,3,109103,4365671552,25,526,529,0.000,0.000,0.000,0,0,0,0,0.00,nan,4,3,1,nan,3,3,24,1,1,15,15,0,0,0,72056046,0.03638,0.00562,0.95630,0.95701,-0.00585,-0.00055,-0.00247,0.00638,0.95701,0.00577,0.00660,3,12111,0,7152,0.00000,0.00000,0.00000,0,0,nan,0,0,0,2605,187491,0,0,0.000,0.000,0.000,0,0.000,0.000,0.000,0,0,4,0,0
PPG,3,109104,4365711552,25,522,514,0.000,0.000,0.000,0,0,0,0,0.00,nan,4,3,1,nan,3,3,24,1,1,16,16,0,0,0,72097190,0.03833,0.00586,0.95752,0.95830,-0.00665,-0.00055,-0.00141,0.00682,0.95830,0.00698,0.00682,3,12109,0,7152,0.00000,0.00000,0.00000,0,0,nan,0,0,0,4294,187491,0,0,0.000,0.000,0.000,0,0.000,0.000,0.000,0,0,4,0,0
PPG,3,109105,4365751552,25,526,527,0.000,0.000,0.000,0,0,0,0,0.00,nan,4,3,1,nan,3,3,24,1,1,17,17,0,0,0,72135703,0.03613,0.00244,0.95313,0.95381,-0.00558,-0.00081,-0.00167,0.00589,0.95381,0.01044,0.00655,3,12117,0,7152,0.00000,0.00000,0.00000,0,0,nan,0,0,0,2597,187491,0,0,0.000,0.000,0.000,0,0.000,0.000,0.000,0,0,4,0,0
PPG,3,109106,4365791552,25,529,534,0.000,0.000,0.000,0,0,0,0,0.00,nan,4,3,1,nan,3,3,24,1,1,18,18,0,0,0,72176836,0.04175,0.00513,0.95190,0.95283,-0.00585,-0.00028,-0.00247,0.00636,0.95283,0.00268,0.00636,3,12140,0,7152,0.00000,0.00000,0.00000,0,0,nan,0,0,0,2638,187491,0,0,0.000,0.000,0.000,0,0.000,0.000,0.000,0,0,4,0,0
PPG,3,109107,4365831552,25,542,535,0.000,0.000,0.000,0,0,0,0,0.00,nan,4,3,1,nan,3,3,24,1,1,19,19,0,0,0,72218001,0.04126,0.00708,0.94629,0.94721,-0.00558,-0.00001,-0.00167,0.00583,0.95462,0.00599,0.00630,3,12124,0,7152,0.00000,0.00000,0.00000,0,0,nan,0,0,0,4317,187491,0,0,0.000,0.000,0.000,0,0.000,0.000,0.000,0,0,4,0,0
PPG,3,109108,4365871552,25,537,541,0.000,0.000,0.000,0,0,0,0,0.00,nan,4,3,1,nan,3,3,24,1,1,20,20,0,0,0,72256538,0.04004,0.00830,0.95117,0.95205,-0.00638,-0.00028,-0.00141,0.00654,0.95205,0.00600,0.00654,3,12117,0,7152,0.00000,0.00000,0.00000,0,0,nan,0,0,0,2609,187491,0,0,0.000,0.000,0.000,0,0.000,0.000,0.000,0,0,4,0,0
PPG,3,109109,4365911552,25,521,520,0.000,0.000,0.000,0,0,0,0,0.00,nan,4,3,1,nan,3,3,24,1,1,21,21,0,0,0,72297696,0.03760,0.01196,0.94849,0.94931,-0.00585,0.00052,-0.00141,0.00604,0.95444,0.00514,0.00604,3,12109,0,7152,0.00000,0.00000,0.00000,0,0,nan,0,0,0,4298,187491,0,0,0.000,0.000,0.000,0,0.000,0.000,0.000,0,0,4,0,0
PPG,3,109110,4365951552,25,530,523,0.000,0.000,0.000,0,0,0,0,0.00,nan,4,3,1,nan,3,3,24,1,1,22,22,0,0,0,72336213,0.03857,0.00830,0.94727,0.94809,-0.00612,-0.00028,-0.00247,0.00660,0.95307,0.00376,0.00660,3,12119,0,7152,0.00000,0.00000,0.00000,0,0,nan,0,0,0,2599,187491,0,0,0.000,0.000,0.000,0,0.000,0.000,0.000,0,0,4,0,0
PPG,3,109111,4365991552,25,533,530,0.000,0.000,0.000,0,0,0,0,0.00,nan,4,3,1,nan,3,3,24,1,1,23,23,0,0,0,72371902,0.03687,0.00830,0.95166,0.95241,-0.00585,-0.00055,-0.00141,0.00604,0.95241,0.00361,0.00609,2,18865,0,7152,0.00000,0.00000,0.00000,0,0,nan,0,0,0,2625,187491,0,0,0.000,0.000,0.000,0,0.000,0.000,0.000,0,0,4,0,0
PPG,3,109112,4366031552,26,525,536,0.000,0.000,0.000,0,0,0,0,0.00,nan,4,3,1,nan,3,3,24,1,1,24,24,0,0,0,72415736,0.03711,0.00366,0.95679,0.95751,-0.00505,-0.00135,-0.00221,0.00567,0.95751,0.00960,0.00600,3,12111,0,7152,0.00000,0.00000,0.00000,0,0,nan,0,0,0,2600,187491,0,0,0.000,0.000,0.000,0,0.000,0.000,0.000,0,0,4,0,0
PPG,3,109113,4366071552,25,531,526,0.000,0.000,0.000,0,0,0,0,0.00,nan,4,3,1,nan,3,3,24,1,1,25,25,0,0,0,72456829,0.03540,0.00562,0.95483,0.95551,-0.00638,-0.00081,-0.00141,0.00659,0.95551,0.00836,0.00659,3,12112,0,7152,0.00000,0.00000,0.00000,0,0,nan,0,0,0,2604,187491,0,0,0.000,0.000,0.000,0,0.000,0.000,0.000,0,0,4,0,0
PPG,3,109114,4366111552,26,535,524,0.000,0.000,0.000,0,0,0,0,0.00,nan,4,3,1,nan,3,3,24,1,1,26,26,0,0,0,72497996,0.03809,0.00854,0.94629,0.94709,-0.00638,0.00052,-0.00087,0.00646,0.94990,0.00560,0.00688,3,12136,0,7152,0.00000,0.00000,0.00000,0,0,nan,0,0,0,4320,187491,0,0,0.000,0.000,0.000,0,0.000,0.000,0.000,0,0,4,0,0
PPG,3,109115,4366151552,25,534,540,0.000,0.000,0.000,0,0,0,0,0.00,nan,4,3,1,nan,3,3,24,1,1,27,27,0,0,0,72536542,0.03979,0.00708,0.94800,0.94886,-0.00585,-0.00108,-0.00114,0.00606,0.95767,0.00882,0.00675,3,12120,0,7152,0.00000,0.00000,0.00000,0,0,nan,0,0,0,2604,187491,0,0,0.000,0.000,0.000,0,0.000,0.000,0.000,0,0,4,0,0
PPG,3,109116,4366191552,35,523,522,0.000,0.000,0.000,0,0,0,0,0.00,nan,4,3,1,nan,3,3,24,1,1,28,28,0,0,0,72577671,0.03857,0.00562,0.95923,0.96002,-0.00558,-0.00081,-0.00141,0.00582,0.96002,0.00838,0.00597,3,12120,0,7152,0.00000,0.00000,0.00000,0,0,nan,0,0,0,4299,187491,0,0,0.000,0.000,0.000,0,0.000,0.000,0.000,0,0,4,0,0
PPG,3,109117,4366231552,26,526,510,0.000,0.000,0.000,0,0,0,0,0.00,nan,4,3,1,nan,3,3,24,1,1,29,29,0,0,0,72616298,0.02979,0.00317,0.95020,0.95067,-0.00558,-0.00081,-0.00141,0.00582,0.95282,0.00720,0.00611,3,12127,0,7152,0.00000,0.00000,0.00000,0,0,nan,0,0,0,2609,187491,0,0,0.000,0.000,0.000,0,0.000,0.000,0.000,0,0,4,0,0
PPG,3,109118,4366271552,25,537,531,0.000,0.000,0.000,0,0,0,0,0.00,nan,4,3,1,nan,3,3,24,1,1,30,30,0,0,0,72657444,0.03833,0.01147,0.94946,0.95031,-0.00585,0.00079,-0.00167,0.00614,0.95340,0.00273,0.00614,3,12135,0,7152,0.00000,0.00000,0.00000,0,0,nan,0,0,0,4302,187491,0,0,0.000,0.000,0.000,0,0.000,0.000,0.000,0,0,4,0,0
PPG,3,109119,4366311552,25,538,534,0.000,0.000,0.000,0,0,0,0,0.00,nan,4,3,1,nan,3,3,24,1,1,31,31,0,0,0,72696060,0.04126,0.00537,0.95068,0.95159,-0.00585,-0.00081,-0.00247,0.00640,0.95159,0.00194,0.00640,3,12173,0,7152,0.00000,0.00000,0.00000,0,0,nan,0,0,0,2605,187491,0,0,0.000,0.000,0.000,0,0.000,0.000,0.000,0,0,4,0,0
PPG,3,109120,4366351552,25,524,532,0.000,0.000,0.000,0,0,0,0,0.00,nan,4,3,1,nan,3,3,24,1,1,0,0,0,0,0,72737179,0.03540,0.00732,0.95361,0.95430,-0.00558,-0.00001,-0.00167,0.00583,0.96118,0.00688,0.00647,3,12115,0,7152,0.00000,0.00000,0.00000,0,0,nan,0,0,0,4295,187491,0,0,0.000,0.000,0.000,0,0.000,0.000,0.000,0,0,4,0,0
PPG,3,109121,4366391552,25,532,515,0.000,0.000,0.000,0,0,0,0,0.00,nan,4,3,1,nan,3,3,24,1,1,1,1,0,0,0,72775682,0.04004,0.00391,0.95215,0.95300,-0.00638,-0.00055,-0.00087,0.00647,0.95470,0.00376,0.00653,3,12119,0,7152,0.00000,0.00000,0.00000,0,0,nan,0,0,0,2605,187491,0,0,0.000,0.000,0.000,0,0.000,0.000,0.000,0,0,4,0,0
PPG,3,109122,4366431552,25,530,524,0.000,0.000,0.000,0,0,0,0,0.00,nan,4,3,1,nan,3,3,24,1,1,2,2,0,0,0,72817169,0.03979,0.00635,0.95142,0.95227,-0.00505,0.00025,-0.00114,0.00518,0.95227,0.00582,0.00566,3,12272,0,7152,0.00000,0.00000,0.00000,0,0,nan,0,0,0,4298,187491,0,0,0.000,0.000,0.000,0,0.000,0.000,0.000,0,0,4,0,0
PPG,3,109123,4366471552,25,536,530,0.000,0.000,0.000,0,0,0,0,0.00,nan,4,3,1,nan,3,3,24,1,1,3,3,0,0,0,72855712,0.03931,0.00220,0.95142,0.95223,-0.00479,-0.00028,-0.00194,0.00517,0.95271,0.00322,0.00668,3,12162,0,7152,0.00000,0.00000,0.00000,0,0,nan,0,0,0,2595,187491,0,0,0.000,0.000,0.000,0,0.000,0.000,0.000,0,0,4,0,0
PPG,3,109124,4366511552,25,525,531,0.000,0.000,0.000,0,0,0,0,0.00,nan,4,3,1,nan,3,3,24,1,1,4,4,0,0,0,72896830,0.03467,0.00757,0.94849,0.94915,-0.00532,0.00025,-0.00247,0.00587,0.95477,0.00562,0.00651,3,12142,0,7152,0.00000,0.00000,0.00000,0,0,nan,0,0,0,2605,187491,0,0,0.000,0.000,0.000,0,0.000,0.000,0.000,0,0,4,0,0
PPG,3,109125,4366551552,39,537,539,0.000,0.000,0.000,0,0,0,0,0.00,nan,4,3,1,nan,3,3,24,1,1,5,5,0,0,0,72938117,0.04102,0.00464,0.95264,0.95353,-0.00638,-0.00028,-0.00300,0.00706,0.95353,0.00178,0.00783,3,12118,0,7152,0.00000,0.00000,0.00000,0,0,nan,0,0,0,4297,187491,0,0,0.000,0.000,0.000,0,0.000,0.000,0.000,0,0,4,0,0
PPG,3,109126,4366591552,27,528,540,0.000,0.000,0.000,0,0,0,0,0.00,nan,4,3,1,nan,3,3,24,1,1,6,6,0,0,0,72976756,0.03809,0.00488,0.95068,0.95146,-0.00638,-0.00081,-0.00167,0.00665,0.95843,0.01170,0.00665,3,12126,0,7152,0.00000,0.00000,0.00000,0,0,nan,0,0,0,2642,187491,0,0,0.000,0.000,0.000,0,0.000,0.000,0.000,0,0,4,0,0
PPG,3,109127,4366631552,26,532,527,0.000,0.000,0.000,0,0,0,0,0.00,nan,4,3,1,nan,3,3,24,1,1,7,7,0,0,0,73018406,0.03662,0.00439,0.95679,0.95750,-0.00585,-0.00135,-0.00167,0.00623,0.95750,0.00618,0.00623,3,12248,0,7152,0.00000,0.00000,0.00000,0,0,nan,0,0,0,4335,187491,0,0,0.000,0.000,0.000,0,0.000,0.000,0.000,0,0,4,0,0
PPG,3,109128,4366671552,26,530,523,0.000,0.000,0.000,0,0,0,0,0.00,nan,4,3,1,nan,3,3,24,1,1,8,8,0,0,0,73057372,0.04150,0.00854,0.94775,0.94870,-0.00585,-0.00055,-0.00247,0.00638,0.95103,0.01072,0.00695,3,12280,0,7152,0.00000,0.00000,0.00000,0,0,nan,0,0,0,4347,187491,0,0,0.000,0.000,0.000,0,0.000,0.000,0.000,0,0,4,0,0
PPG,3,109129,4366711552,27,535,528,0.000,0.000,0.000,0,0,0,0,0.00,nan,4,3,1,nan,3,3,24,1,1,9,9,0,0,0,73096241,0.04028,0.00635,0.94897,0.94985,-0.00612,0.00052,-0.00354,0.00709,0.94985,0.00178,0.00709,3,12242,0,7152,0.00000,0.00000,0.00000,0,0,nan,0,0,0,2656,187491,0,0,0.000,0.000,0.000,0,0.000,0.000,0.000,0,0,4,0,0
PPG,3,109130,4366751552,25,537,529,0.000,0.000,0.000,0,0,0,0,0.00,nan,4,3,1,nan,3,3,24,1,1,10,10,0,0,0,73137809,0.04150,0.00806,0.95459,0.95553,-0.00558,-0.00001,-0.00221,0.00600,0.95747,0.00762,0.00600,3,12277,0,7152,0.00000,0.00000,0.00000,0,0,nan,0,0,0,4331,187491,0,0,0.000,0.000,0.000,0,0.000,0.000,0.000,0,0,4,0,0
PPG,3,109131,4366791552,25,533,535,0.000,0.000,0.000,0,0,0,0,0.00,nan,4,3,1,nan,3,3,24,1,1,11,11,0,0,0,73176658,0.03882,0.00562,0.95239,0.95320,-0.00479,-0.00028,-0.00167,0.00508,0.95597,0.00781,0.00708,3,12241,0,7152,0.00000,0.00000,0.00000,0,0,nan,0,0,0,2626,187491,0,0,0.000,0.000,0.000,0,0.000,0.000,0.000,0,0,4,0,0
PPG,3,109132,4366831552,26,528,526,0.000,0.000,0.000,0,0,0,0,0.00,nan,4,3,1,nan,3,3,24,1,1,12,12,0,0,0,73218221,0.03735,0.00342,0.95264,0.95337,-0.00558,0.00212,-0.00221,0.00637,0.95685,0.00609,0.00637,3,12269,0,7152,0.00000,0.00000,0.00000,0,0,nan,0,0,0,4340,187491,0,0,0.000,0.000,0.000,0,0.000,0.000,0.000,0,0,4,0,0
PPG,3,109133,4366871552,26,533,528,0.000,0.000,0.000,0,0,0,0,0.00,nan,4,3,1,nan,3,3,24,1,1,13,13,0,0,0,73257000,0.03882,0.00610,0.95508,0.95589,-0.00612,0.00372,-0.00194,0.00742,0.95589,0.00228,0.00742,3,12217,0,7152,0.00000,0.00000,0.00000,0,0,nan,0,0,0,2640,187491,0,0,0.000,0.000,0.000,0,0.000,0.000,0.000,0,0,4,0,0
PPG,3,109134,4366911552,25,536,531,0.000,0.000,0.000,0,0,0,0,0.00,nan,4,3,1,nan,3,3,24,1,1,14,14,0,0,0,73298539,0.03809,0.00513,0.94971,0.95048,-0.00585,0.00238,-0.00141,0.00647,0.95048,0.00731,0.00702,3,12253,0,7152,0.00000,0.00000,0.00000,0,0,nan,0,0,0,4366,187491,0,0,0.000,0.000,0.000,0,0.000,0.000,0.000,0,0,4,0,0
PPG,3,109135,4366951552,25,530,526,0.000,0.000,0.000,0,0,0,0,0.00,nan,4,3,1,nan,3,3,24,1,1,15,15,0,0,0,73337373,0.04126,0.00635,0.94556,0.94648,-0.00612,-0.00081,-0.00167,0.00639,0.95144,0.00496,0.00639,3,12196,0,7152,0.00000,0.00000,0.00000,0,0,nan,0,0,0,4323,187491,0,0,0.000,0.000,0.000,0,0.000,0.000,0.000,0,0,4,0,0
PPG,3,109136,4366991552,25,526,526,0.000,0.000,0.000,0,0,0,0,0.00,nan,4,3,1,nan,3,3,24,1,1,16,16,0,0,0,73373372,0.03760,0.00488,0.94824,0.94900,-0.00665,-0.00081,-0.00194,0.00697,0.94900,0.00970,0.00697,2,21652,0,7153,0.00000,0.00000,0.00000,0,0,nan,0,0,0,2614,187491,0,0,0.000,0.000,0.000,0,0.000,0.000,0.000,0,0,4,0,0
PPG,3,109137,4367031552,25,528,537,0.000,0.000,0.000,0,0,0,0,0.00,nan,4,3,1,nan,3,3,24,1,1,17,17,0,0,0,73417596,0.03931,0.00586,0.95215,0.95298,-0.00505,-0.00028,-0.00167,0.00533,0.96499,0.01599,0.00631,3,12258,0,7153,0.00000,0.00000,0.00000,0,0,nan,0,0,0,4340,187491,0,0,0.000,0.000,0.000,0,0.000,0.000,0.000,0,0,4,0,0
PPG,3,109138,4367071552,26,541,526,0.000,0.000,0.000,0,0,0,0,0.00,nan,4,3,1,nan,3,3,24,1,1,18,18,0,0,0,73456435,0.03491,0.00732,0.94849,0.94916,-0.00558,-0.00055,-0.00167,0.00586,0.95012,0.00610,0.00714,3,12241,0,7153,0.00000,0.00000,0.00000,0,0,nan,0,0,0,2620,187491,0,0,0.000,0.000,0.000,0,0.000,0.000,0.000,0,0,4,0,0
PPG,3,109139,4367111552,25,535,519,0.000,0.000,0.000,0,0,0,0,0.00,nan,4,3,1,nan,3,3,24,1,1,19,19,0,0,0,73497847,0.04028,0.00439,0.94336,0.94423,-0.00612,-0.00108,-0.00167,0.00643,0.95400,0.00977,0.00724,3,12236,0,7153,0.00000,0.00000,0.00000,0,0,nan,0,0,0,4325,187491,0,0,0.000,0.000,0.000,0,0.000,0.000,0.000,0,0,4,0,0
PPG,3,109140,4367151552,26,531,524,0.000,0.000,0.000,0,0,0,0,0.00,nan,4,3,1,nan,3,3,24,1,1,20,20,0,0,0,73536663,0.03760,0.00757,0.95190,0.95268,-0.00585,-0.00028,-0.00167,0.00609,0.95905,0.01482,0.00657,3,12225,0,7153,0.00000,0.00000,0.00000,0,0,nan,0,0,0,2630,187491,0,0,0.000,0.000,0.000,0,0.000,0.000,0.000,0,0,4,0,0
PPG,3,109141,4367191552,25,523,535,0.000,0.000,0.000,0,0,0,0,0.00,nan,4,3,1,nan,3,3,24,1,1,21,21,0,0,0,73578131,0.03662,0.00269,0.95190,0.95261,-0.00505,-0.00108,-0.00194,0.00552,0.95261,0.00676,0.00659,3,12213,0,7153,0.00000,0.00000,0.00000,0,0,nan,0,0,0,4326,187491,0,0,0.000,0.000,0.000,0,0.000,0.000,0.000,0,0,4,0,0
PPG,3,109142,4367231552,25,539,534,0.000,0.000,0.000,0,0,0,0,0.00,nan,4,3,1,nan,3,3,24,1,1,22,22,0,0,0,73616968,0.04272,0.00757,0.95093,0.95192,-0.00638,-0.00135,-0.00247,0.00698,0.95192,0.00261,0.00734,3,12180,0,7153,0.00000,0.00000,0.00000,0,0,nan,0,0,0,2626,187491,0,0,0.000,0.000,0.000,0,0.000,0.000,0.000,0,0,4,0,0
PPG,3,109143,4367271552,25,526,520,0.000,0.000,0.000,0,0,0,0,0.00,nan,4,3,1,nan,3,3,24,1,1,23,23,0,0,0,73658332,0.04224,0.00659,0.97949,0.98042,-0.00692,-0.01174,-0.00274,0.01390,0.98042,0.03229,0.01390,3,12120,0,7153,0.00000,0.00000,0.00000,0,0,nan,0,0,0,4327,187491,0,0,0.000,0.000,0.000,0,0.000,0.000,0.000,0,0,4,0,0
PPG,3,109144,4367311552,25,525,530,0.000,0.000,0.000,0,0,0,0,0.00,nan,4,3,1,nan,3,3,24,1,1,24,24,0,0,0,73696926,0.04150,0.00537,0.95972,0.96063,-0.00532,-0.00268,-0.00247,0.00645,0.96063,0.04218,0.00908,3,12132,0,7153,0.00000,0.00000,0.00000,0,0,nan,0,0,0,2606,187491,0,0,0.000,0.000,0.000,0,0.000,0.000,0.000,0,0,4,0,0
PPG,3,109145,4367351552,25,534,518,0.000,0.000,0.000,0,0,0,0,0.00,nan,4,3,1,nan,3,3,24,1,1,25,25,0,0,0,73738163,0.03174,0.00610,0.94604,0.94660,-0.00452,-0.00268,-0.00167,0.00551,0.95356,0.00706,0.00628,3,12114,0,7153,0.00000,0.00000,0.00000,0,0,nan,0,0,0,4298,187491,0,0,0.000,0.000,0.000,0,0.000,0.000,0.000,0,0,4,0,0
PPG,3,109146,4367391552,25,535,532,0.000,0.000,0.000,0,0,0,0,0.00,nan,4,3,1,nan,3,3,24,1,1,26,26,0,0,0,73776679,0.03735,0.00635,0.95166,0.95241,-0.00612,-0.00295,-0.00247,0.00723,0.95801,0.00711,0.00723,3,12123,0,7153,0.00000,0.00000,0.00000,0,0,nan,0,0,0,2600,187491,0,0,0.000,0.000,0.000,0,0.000,0.000,0.000,0,0,4,0,0
PPG,3,109147,4367431552,26,534,534,0.000,0.000,0.000,0,0,0,0,0.00,nan,4,3,1,nan,3,3,24,1,1,27,27,0,0,0,73817860,0.04248,0.00610,0.94824,0.94921,-0.00612,-0.00135,-0.00114,0.00637,0.94921,0.00500,0.00637,3,12165,0,7153,0.00000,0.00000,0.00000,0,0,nan,0,0,0,4323,187491,0,0,0.000,0.000,0.000,0,0.000,0.000,0.000,0,0,4,0,0
PPG,3,109148,4367471552,25,524,519,0.000,0.000,0.000,0,0,0,0,0.00,nan,4,3,1,nan,3,3,24,1,1,28,28,0,0,0,73856430,0.03784,0.00439,0.95654,0.95730,-0.00558,-0.00215,-0.00167,0.00621,0.95730,0.00644,0.00621,3,12124,0,7153,0.00000,0.00000,0.00000,0,0,nan,0,0,0,2605,187491,0,0,0.000,0.000,0.000,0,0.000,0.000,0.000,0,0,4,0,0
PPG,3,109149,4367511552,25,533,526,0.000,0.000,0.000,0,0,0,0,0.00,nan,4,3,1,nan,3,3,24,1,1,29,29,0,0,0,73897550,0.03564,0.00537,0.95190,0.95259,-0.00479,-0.00108,-0.00167,0.00518,0.95259,0.01056,0.00597,3,12125,0,7153,0.00000,0.00000,0.00000,0,0,nan,0,0,0,4300,187491,0,0,0.000,0.000,0.000,0,0.000,0.000,0.000,0,0,4,0,0
PPG,3,109150,4367551552,25,537,535,0.000,0.000,0.000,0,0,0,0,0.00,nan,4,3,1,nan,3,3,24,1,1,30,30,0,0,0,73936136,0.03857,0.00635,0.94702,0.94783,-0.00612,0.00025,-0.00034,0.00613,0.94976,0.00308,0.00613,3,12126,0,7153,0.00000,0.00000,0.00000,0,0,nan,0,0,0,2595,187491,0,0,0.000,0.000,0.000,0,0.000,0.000,0.000,0,0,4,0,0
PPG,3,109151,4367591552,25,543,539,0.000,0.000,0.000,0,0,0,0,0.00,nan,4,3,1,nan,3,3,24,1,1,31,31,0,0,0,73977232,0.03833,0.00659,0.95190,0.95270,-0.00638,-0.00108,-0.00167,0.00669,0.95270,0.00434,0.00669,3,12105,0,7153,0.00000,0.00000,0.00000,0,0,nan,0,0,0,4295,187491,0,0,0.000,0.000,0.000,0,0.000,0.000,0.000,0,0,4,0,0
PPG,3,109152,4367631552,25,538,536,0.000,0.000,0.000,0,0,0,0,0.00,nan,4,3,1,nan,3,3,24,1,1,0,0,0,0,0,74015763,0.03711,0.00464,0.95068,0.95142,-0.00585,-0.00081,-0.00114,0.00602,0.95396,0.00167,0.00643,3,12120,0,7153,0.00000,0.00000,0.00000,0,0,nan,0,0,0,2599,187491,0,0,0.000,0.000,0.000,0,0.000,0.000,0.000,0,0,4,0,0
PPG,3,109153,4367671552,25,535,534,0.000,0.000,0.000,0,0,0,0,0.00,nan,4,3,1,nan,3,3,24,1,1,1,1,0,0,0,74057200,0.03955,0.00757,0.95435,0.95519,-0.00585,0.00025,-0.00167,0.00609,0.95519,0.00374,0.00609,3,12195,0,7153,0.00000,0.00000,0.00000,0,0,nan,0,0,0,2598,187491,0,0,0.000,0.000,0.000,0,0.000,0.000,0.000,0,0,4,0,0
PPG,3,109154,4367711552,26,538,542,0.000,0.000,0.000,0,0,0,0,0.00,nan,4,3,1,nan,3,3,24,1,1,2,2,0,0,0,74098296,0.04053,0.00806,0.95337,0.95426,-0.00612,-0.00188,-0.00194,0.00669,0.95730,0.00307,0.00669,3,12117,0,7153,0.00000,0.00000,0.00000,0,0,nan,0,0,0,4298,187491,0,0,0.000,0.000,0.000,0,0.000,0.000,0.000,0,0,4,0,0
PPG,3,109155,4367751552,25,546,540,0.000,0.000,0.000,0,0,0,0,0.00,nan,4,3,1,nan,3,3,24,1,1,3,3,0,0,0,74136878,0.03662,0.00366,0.94678,0.94749,-0.00532,-0.00055,-0.00247,0.00589,0.96098,0.01349,0.00589,3,12160,0,7153,0.00000,0.00000,0.00000,0,0,nan,0,0,0,2606,187491,0,0,0.000,0.000,0.000,0,0.000,0.000,0.000,0,0,4,0,0
PPG,3,109156,4367791552,25,525,530,0.000,0.000,0.000,0,0,0,0,0.00,nan,4,3,1,nan,3,3,24,1,1,4,4,0,0,0,74177981,0.03638,0.00317,0.95410,0.95480,-0.00532,-0.00135,-0.00141,0.00566,0.95480,0.00669,0.00669,3,12119,0,7153,0.00000,0.00000,0.00000,0,0,nan,0,0,0,4304,187491,0,0,0.000,0.000,0.000,0,0.000,0.000,0.000,0,0,4,0,0
PPG,3,109157,4367831552,25,515,516,0.000,0.000,0.000,0,0,0,0,0.00,nan,4,3,1,nan,3,3,24,1,1,5,5,0,0,0,74216489,0.03931,0.00439,0.95410,0.95492,-0.00558,-0.00161,-0.00274,0.00643,0.95492,0.00613,0.00643,3,12117,0,7153,0.00000,0.00000,0.00000,0,0,nan,0,0,0,2594,187491,0,0,0.000,0.000,0.000,0,0.000,0.000,0.000,0,0,4,0,0
PPG,3,109158,4367871552,25,521,516,0.000,0.000,0.000,0,0,0,0,0.00,nan,4,3,1,nan,3,3,24,1,1,6,6,0,0,0,74257769,0.03247,0.00513,0.95166,0.95223,-0.00505,-0.00108,-0.00167,0.00543,0.95832,0.00513,0.00674,3,12243,0,7153,0.00000,0.00000,0.00000,0,0,nan,0,0,0,4303,187491,0,0,0.000,0.000,0.000,0,0.000,0.000,0.000,0,0,4,0,0
PPG,3,109159,4367911552,25,535,535,0.000,0.000,0.000,0,0,0,0,0.00,nan,4,3,1,nan,3,3,24,1,1,7,7,0,0,0,74296459,0.03735,0.00415,0.94556,0.94630,-0.00665,-0.00055,-0.00114,0.00677,0.95112,0.00482,0.00677,3,12284,0,7153,0.00000,0.00000,0.00000,0,0,nan,0,0,0,2600,187491,0,0,0.000,0.000,0.000,0,0.000,0.000,0.000,0,0,4,0,0
PPG,3,109160,4367951552,26,531,524,0.000,0.000,0.000,0,0,0,0,0.00,nan,4,3,1,nan,3,3,24,1,1,8,8,0,0,0,74337876,0.03809,0.00708,0.95361,0.95440,-0.00585,-0.00108,-0.00167,0.00618,0.95440,0.00777,0.00618,3,12304,0,7153,0.00000,0.00000,0.00000,0,0,nan,0,0,0,4315,187491,0,0,0.000,0.000,0.000,0,0.000,0.000,0.000,0,0,4,0,0
PPG,3,109161,4367991552,25,536,528,0.000,0.000,0.000,0,0,0,0,0.00,nan,4,3,1,nan,3,3,24,1,1,9,9,0,0,0,74373874,0.03711,0.00684,0.95532,0.95607,-0.00532,-0.00081,-0.00194,0.00572,0.95607,0.00111,0.00615,2,21672,0,7154,0.00000,0.00000,0.00000,0,0,nan,0,0,0,2612,187491,0,0,0.000,0.000,0.000,0,0.000,0.000,0.000,0,0,4,0,0
PPG,3,109162,4368031552,30,536,525,0.000,0.000,0.000,0,0,0,0,0.00,nan,4,3,1,nan,3,3,24,1,1,10,10,0,0,0,74418111,0.04199,0.00488,0.94678,0.94772,-0.00665,0.00052,-0.00274,0.00721,0.95369,0.00466,0.00721,3,12234,0,7154,0.00000,0.00000,0.00000,0,0,nan,0,0,0,4342,187491,0,0,0.000,0.000,0.000,0,0.000,0.000,0.000,0,0,4,0,0
PPG,3,109163,4368071552,27,528,532,0.000,0.000,0.000,0,0,0,0,0.00,nan,4,3,1,nan,3,3,24,1,1,11,11,0,0,0,74457074,0.03784,0.00952,0.94385,0.94465,-0.00638,-0.00028,-0.00247,0.00685,0.95593,0.00904,0.00720,3,12260,0,7154,0.00000,0.00000,0.00000,0,0,nan,0,0,0,2626,187491,0,0,0.000,0.000,0.000,0,0.000,0.000,0.000,0,0,4,0,0
PPG,3,109164,4368111552,28,535,537,0.000,0.000,0.000,0,0,0,0,0.00,nan,4,3,1,nan,3,3,24,1,1,12,12,0,0,0,74498564,0.04150,0.00928,0.94482,0.94578,-0.00505,-0.00081,-0.00141,0.00531,0.95307,0.00728,0.00644,3,12234,0,7154,0.00000,0.00000,0.00000,0,0,nan,0,0,0,4320,187491,0,0,0.000,0.000,0.000,0,0.000,0.000,0.000,0,0,4,0,0
PPG,3,109165,4368151552,26,528,528,0.000,0.000,0.000,0,0,0,0,0.00,nan,4,3,1,nan,3,3,24,1,1,13,13,0,0,0,74537464,0.03931,0.00562,0.94873,0.94956,-0.00532,-0.00028,-0.00221,0.00576,0.95456,0.00500,0.00597,3,12302,0,7154,0.00000,0.00000,0.00000,0,0,nan,0,0,0,4352,187491,0,0,0.000,0.000,0.000,0,0.000,0.000,0.000,0,0,4,0,0
PPG,3,109166,4368191552,27,532,531,0.000,0.000,0.000,0,0,0,0,0.00,nan,4,3,1,nan,3,3,24,1,1,14,14,0,0,0,74576366,0.03491,0.00488,0.94995,0.95061,-0.00612,-0.00001,-0.00221,0.00650,0.95061,0.00631,0.00678,3,12239,0,7154,0.00000,0.00000,0.00000,0,0,nan,0,0,0,2622,187491,0,0,0.000,0.000,0.000,0,0.000,0.000,0.000,0,0,4,0,0
PPG,3,109167,4368231552,26,541,540,0.000,0.000,0.000,0,0,0,0,0.00,nan,4,3,1,nan,3,3,24,1,1,15,15,0,0,0,74617883,0.03760,0.00586,0.95337,0.95413,-0.00612,0.00052,-0.00141,0.00630,0.95413,0.00612,0.00748,3,12251,0,7154,0.00000,0.00000,0.00000,0,0,nan,0,0,0,4338,187491,0,0,0.000,0.000,0.000,0,0.000,0.000,0.000,0,0,4,0,0
PPG,3,109168,4368271552,26,529,523,0.000,0.000,0.000,0,0,0,0,0.00,nan,4,3,1,nan,3,3,24,1,1,16,16,0,0,0,74656812,0.03906,0.00903,0.94995,0.95080,-0.00585,-0.00108,-0.00274,0.00655,0.95080,0.00791,0.00768,3,12258,0,7154,0.00000,0.00000,0.00000,0,0,nan,0,0,0,2609,187491,0,0,0.000,0.000,0.000,0,0.000,0.000,0.000,0,0,4,0,0
PPG,3,109169,4368311552,25,525,525,0.000,0.000,0.000,0,0,0,0,0.00,nan,4,3,1,nan,3,3,24,1,1,17,17,0,0,0,74698265,0.03882,0.00684,0.94482,0.94565,-0.00692,0.00052,-0.00194,0.00720,0.95093,0.00437,0.00720,3,12261,0,7154,0.00000,0.00000,0.00000,0,0,nan,0,0,0,4340,187491,0,0,0.000,0.000,0.000,0,0.000,0.000,0.000,0,0,4,0,0
PPG,3,109170,4368351552,34,524,534,0.000,0.000,0.000,0,0,0,0,0.00,nan,4,3,1,nan,3,3,24,1,1,18,18,0,0,0,74737136,0.03882,0.00708,0.94824,0.94906,-0.00558,-0.00215,-0.00194,0.00629,0.95040,0.00354,0.00629,3,12269,0,7154,0.00000,0.00000,0.00000,0,0,nan,0,0,0,2641,187491,0,0,0.000,0.000,0.000,0,0.000,0.000,0.000,0,0,4,0,0
PPG,3,109171,4368391552,26,530,532,0.000,0.000,0.000,0,0,0,0,0.00,nan,4,3,1,nan,3,3,24,1,1,19,19,0,0,0,74778613,0.04175,0.00366,0.95288,0.95380,-0.00638,-0.00081,-0.00061,0.00646,0.95464,0.00557,0.00646,3,12251,0,7154,0.00000,0.00000,0.00000,0,0,nan,0,0,0,4335,187491,0,0,0.000,0.000,0.000,0,0.000,0.000,0.000,0,0,4,0,0
PPG,3,109172,4368431552,26,528,529,0.000,0.000,0.000,0,0,0,0,0.00,nan,4,3,1,nan,3,3,24,1,1,20,20,0,0,0,74817412,0.04419,0.00806,0.95264,0.95370,-0.00505,-0.00055,-0.00221,0.00554,0.96079,0.00709,0.00656,3,12242,0,7154,0.00000,0.00000,0.00000,0,0,nan,0,0,0,2632,187491,0,0,0.000,0.000,0.000,0,0.000,0.000,0.000,0,0,4,0,0
PPG,3,109173,4368471552,25,522,520,0.000,0.000,0.000,0,0,0,0,0.00,nan,4,3,1,nan,3,3,24,1,1,21,21,0,0,0,74858893,0.03735,0.00977,0.94922,0.95000,-0.00558,-0.00028,-0.00087,0.00566,0.95000,0.00504,0.00651,3,12207,0,7154,0.00000,0.00000,0.00000,0,0,nan,0,0,0,4331,187491,0,0,0.000,0.000,0.000,0,0.000,0.000,0.000,0,0,4,0,0
PPG,3,109174,4368511552,26,531,528,0.000,0.000,0.000,0,0,0,0,0.00,nan,4,3,1,nan,3,3,24,1,1,22,22,0,0,0,74897735,0.03613,0.00562,0.95264,0.95334,-0.00532,-0.00028,-0.00141,0.00551,0.95463,0.00462,0.00662,3,12249,0,7154,0.00000,0.00000,0.00000,0,0,nan,0,0,0,4332,187491,0,0,0.000,0.000,0.000,0,0.000,0.000,0.000,0,0,4,0,0
PPG,3,109175,4368551552,25,527,534,0.000,0.000,0.000,0,0,0,0,0.00,nan,4,3,1,nan,3,3,24,1,1,23,23,0,0,0,74936539,0.03857,0.00537,0.94971,0.95051,-0.00638,-0.00135,-0.00167,0.00674,0.95181,0.01097,0.00674,3,12252,0,7154,0.00000,0.00000,0.00000,0,0,nan,0,0,0,2598,187491,0,0,0.000,0.000,0.000,0,0.000,0.000,0.000,0,0,4,0,0
PPG,3,109176,4368591552,26,528,539,0.000,0.000,0.000,0,0,0,0,0.00,nan,4,3,1,nan,3,3,24,1,1,24,24,0,0,0,74977915,0.03662,0.00488,0.94751,0.94823,-0.00612,-0.00108,-0.00087,0.00627,0.95427,0.00604,0.00699,3,12287,0,7154,0.00000,0.00000,0.00000,0,0,nan,0,0,0,4309,187491,0,0,0.000,0.000,0.000,0,0.000,0.000,0.000,0,0,4,0,0
PPG,3,109177,4368631552,25,526,520,0.000,0.000,0.000,0,0,0,0,0.00,nan,4,3,1,nan,3,3,24,1,1,25,25,0,0,0,75016463,0.03906,0.00854,0.95508,0.95591,-0.00612,-0.00001,-0.00114,0.00622,0.95591,0.00687,0.00667,3,12154,0,7154,0.00000,0.00000,0.00000,0,0,nan,0,0,0,2600,187491,0,0,0.000,0.000,0.000,0,0.000,0.000,0.000,0,0,4,0,0
PPG,3,109178,4368671552,25,538,537,0.000,0.000,0.000,0,0,0,0,0.00,nan,4,3,1,nan,3,3,24,1,1,26,26,0,0,0,75057617,0.04102,0.01025,0.95508,0.95601,-0.00665,-0.00028,-0.00141,0.00680,0.95601,0.00691,0.00680,3,12147,0,7154,0.00000,0.00000,0.00000,0,0,nan,0,0,0,4301,187491,0,0,0.000,0.000,0.000,0,0.000,0.000,0.000,0,0,4,0,0
PPG,3,109179,4368711552,25,539,538,0.000,0.000,0.000,0,0,0,0,0.00,nan,4,3,1,nan,3,3,24,1,1,27,27,0,0,0,75096189,0.03394,0.00757,0.95264,0.95327,-0.00638,0.00105,-0.00141,0.00662,0.95488,0.00523,0.00703,3,12117,0,7154,0.00000,0.00000,0.00000,0,0,nan,0,0,0,2601,187491,0,0,0.000,0.000,0.000,0,0.000,0.000,0.000,0,0,4,0,0
PPG,3,109180,4368751552,25,524,525,0.000,0.000,0.000,0,0,0,0,0.00,nan,4,3,1,nan,3,3,24,1,1,28,28,0,0,0,75137307,0.04150,0.00415,0.94849,0.94940,-0.00585,-0.00028,-0.00114,0.00597,0.95415,0.00791,0.00643,3,12127,0,7154,0.00000,0.00000,0.00000,0,0,nan,0,0,0,2598,187491,0,0,0.000,0.000,0.000,0,0.000,0.000,0.000,0,0,4,0,0
PPG,3,109181,4368791552,25,522,511,0.000,0.000,0.000,0,0,0,0,0.00,nan,4,3,1,nan,3,3,24,1,1,29,29,0,0,0,75178453,0.03833,0.00391,0.94629,0.94707,-0.00612,0.00025,-0.00114,0.00623,0.95188,0.00394,0.00734,3,12124,0,7154,0.00000,0.00000,0.00000,0,0,nan,0,0,0,4295,187491,0,0,0.000,0.000,0.000,0,0.000,0.000,0.000,0,0,4,0,0
PPG,3,109182,4368831552,25,535,521,0.000,0.000,0.000,0,0,0,0,0.00,nan,4,3,1,nan,3,3,24,1,1,30,30,0,0,0,75216956,0.03613,0.00977,0.94922,0.94996,-0.00585,-0.00055,-0.00034,0.00589,0.95937,0.01229,0.00589,3,12115,0,7154,0.00000,0.00000,0.00000,0,0,nan,0,0,0,2597,187491,0,0,0.000,0.000,0.000,0,0.000,0.000,0.000,0,0,4,0,0
PPG,3,109183,4368871552,25,532,529,0.000,0.000,0.000,0,0,0,0,0.00,nan,4,3,1,nan,3,3,24,1,1,31,31,0,0,0,75293575,0.04102,0.00562,0.94995,0.95085,-0.00612,-0.00161,0.00019,0.00633,0.95256,0.00260,0.00633,2,59764,0,7158,0.00000,0.00000,0.00000,0,0,nan,0,0,0,59792,187491,0,0,0.000,0.000,0.000,0,0.000,0.000,0.000,0,0,4,0,0
PPG,3,109184,4368911552,25,533,531,0.000,0.000,0.000,0,0,0,0,0.00,nan,4,3,1,nan,3,3,24,1,1,0,0,0,0,0,75293575,0.04102,0.00562,0.94995,0.95085,-0.00612,-0.00161,0.00019,0.00633,0.00000,0.00000,0.00000,0,59764,0,7158,0.00000,0.00000,0.00000,0,0,nan,0,0,0,11671,187491,0,0,0.000,0.000,0.000,0,0.000,0.000,0.000,0,0,4,0,0
PPG,3,109185,4368951552,25,533,533,0.000,0.000,0.000,0,0,0,0,0.00,nan,4,3,1,nan,3,3,24,1,1,1,1,0,0,0,75339448,0.04224,0.00903,0.95190,0.95288,-0.00612,-0.00108,-0.00141,0.00637,0.95409,0.00408,0.00637,3,12117,0,7159,0.00000,0.00000,0.00000,0,0,nan,0,0,0,4294,187491,0,0,0.000,0.000,0.000,0,0.000,0.000,0.000,0,0,4,0,0
PPG,3,109186,4368991552,25,510,514,0.000,0.000,0.000,0,0,0,0,0.00,nan,4,3,1,nan,3,3,24,1,1,2,2,0,0,0,75375169,0.03735,0.00537,0.95410,0.95485,-0.00745,-0.00028,-0.00141,0.00759,0.95543,0.00255,0.00759,2,21481,0,7160,0.00000,0.00000,0.00000,0,0,nan,0,0,0,2598,187491,0,0,0.000,0.000,0.000,0,0.000,0.000,0.000,0,0,4,0,0
PPG,3,109187,4369031552,25,528,526,0.000,0.000,0.000,0,0,0,0,0.00,nan,4,3,1,nan,3,3,24,1,1,3,3,0,0,0,75416345,0.03467,0.00977,0.94946,0.95015,-0.00532,-0.00081,-0.00087,0.00545,0.95563,0.00549,0.00615,3,12112,0,7160,0.00000,0.00000,0.00000,0,0,nan,0,0,0,2595,187491,0,0,0.000,0.000,0.000,0,0.000,0.000,0.000,0,0,4,0,0
PPG,3,109188,4369071552,25,529,515,0.000,0.000,0.000,0,0,0,0,0.00,nan,4,3,1,nan,3,3,24,1,1,4,4,0,0,0,75457470,0.04248,0.00684,0.95068,0.95166,-0.00505,-0.00055,-0.00141,0.00527,0.95166,0.00156,0.00604,3,12141,0,7160,0.00000,0.00000,0.00000,0,0,nan,0,0,0,2595,187491,0,0,0.000,0.000,0.000,0,0.000,0.000,0.000,0,0,4,0,0
PPG,3,109189,4369111552,25,526,523,0.000,0.000,0.000,0,0,0,0,0.00,nan,4,3,1,nan,3,3,24,1,1,5,5,0,0,0,75498565,0.03540,0.00391,0.95776,0.95843,-0.00505,-0.00055,-0.00221,0.00554,0.95843,0.00403,0.00653,3,12116,0,7160,0.00000,0.00000,0.00000,0,0,nan,0,0,0,4298,187491,0,0,0.000,0.000,0.000,0,0.000,0.000,0.000,0,0,4,0,0
PPG,3,109190,4369151552,26,534,523,0.000,0.000,0.000,0,0,0,0,0.00,nan,4,3,1,nan,3,3,24,1,1,6,6,0,0,0,75537081,0.03833,0.00708,0.94702,0.94782,-0.00612,0.00025,-0.00087,0.00618,0.95580,0.00769,0.00644,3,12120,0,7160,0.00000,0.00000,0.00000,0,0,nan,0,0,0,2595,187491,0,0,0.000,0.000,0.000,0,0.000,0.000,0.000,0,0,4,0,0
PPG,3,109191,4369191552,26,537,536,0.000,0.000,0.000,0,0,0,0,0.00,nan,4,3,1,nan,3,3,24,1,1,7,7,0,0,0,75578264,0.04053,0.00562,0.94824,0.94912,-0.00532,0.00052,-0.00087,0.00541,0.95443,0.00661,0.00777,3,12129,0,7160,0.00000,0.00000,0.00000,0,0,nan,0,0,0,4294,187491,0,0,0.000,0.000,0.000,0,0.000,0.000,0.000,0,0,4,0,0
PPG,3,109192,4369231552,25,531,534,0.000,0.000,0.000,0,0,0,0,0.00,nan,4,3,1,nan,3,3,24,1,1,8,8,0,0,0,75616807,0.03662,0.00342,0.95313,0.95383,-0.00638,-0.00028,-0.00114,0.00649,0.95614,0.00865,0.00659,3,12127,0,7160,0.00000,0.00000,0.00000,0,0,nan,0,0,0,2595,187491,0,0,0.000,0.000,0.000,0,0.000,0.000,0.000,0,0,4,0,0
PPG,3,109193,4369271552,25,522,528,0.000,0.000,0.000,0,0,0,0,0.00,nan,4,3,1,nan,3,3,24,1,1,9,9,0,0,0,75657971,0.04028,0.00928,0.95166,0.95256,-0.00558,-0.00188,-0.00194,0.00620,0.95462,0.00207,0.00747,3,12151,0,7160,0.00000,0.00000,0.00000,0,0,nan,0,0,0,4304,187491,0,0,0.000,0.000,0.000,0,0.000,0.000,0.000,0,0,4,0,0
PPG,3,109194,4369311552,25,531,520,0.000,0.000,0.000,0,0,0,0,0.00,nan,4,3,1,nan,3,3,24,1,1,10,10,0,0,0,75696493,0.03979,0.00269,0.94824,0.94908,-0.00665,-0.00001,-0.00194,0.00693,0.95562,0.00681,0.00693,3,12123,0,7160,0.00000,0.00000,0.00000,0,0,nan,0,0,0,2595,187491,0,0,0.000,0.000,0.000,0,0.000,0.000,0.000,0,0,4,0,0
PPG,3,109195,4369351552,25,530,533,0.000,0.000,0.000,0,0,0,0,0.00,nan,4,3,1,nan,3,3,24,1,1,11,11,0,0,0,75737627,0.03906,0.01001,0.95435,0.95520,-0.00532,-0.00081,-0.00114,0.00550,0.95520,0.00748,0.00580,3,12129,0,7160,0.00000,0.00000,0.00000,0,0,nan,0,0,0,2595,187491,0,0,0.000,0.000,0.000,0,0.000,0.000,0.000,0,0,4,0,0
PPG,3,109196,4369391552,29,534,526,0.000,0.000,0.000,0,0,0,0,0.00,nan,4,3,1,nan,3,3,24,1,1,12,12,0,0,0,75778824,0.03589,-0.00024,0.95166,0.95234,-0.00558,-0.00161,-0.00087,0.00588,0.95561,0.00363,0.00588,3,12132,0,7160,0.00000,0.00000,0.00000,0,0,nan,0,0,0,4296,187491,0,0,0.000,0.000,0.000,0,0.000,0.000,0.000,0,0,4,0,0
PPG,3,109197,4369431552,25,535,539,0.000,0.000,0.000,0,0,0,0,0.00,nan,4,3,1,nan,3,3,24,1,1,13,13,0,0,0,75817331,0.03735,0.00562,0.95093,0.95168,-0.00532,-0.00055,-0.00087,0.00542,0.95602,0.01288,0.00630,3,12119,0,7160,0.00000,0.00000,0.00000,0,0,nan,0,0,0,2595,187491,0,0,0.000,0.000,0.000,0,0.000,0.000,0.000,0,0,4,0,0
PPG,3,109198,4369471552,25,536,540,0.000,0.000,0.000,0,0,0,0,0.00,nan,4,3,1,nan,3,3,24,1,1,14,14,0,0,0,75858429,0.03833,0.00708,0.95093,0.95173,-0.00558,0.00025,-0.00194,0.00592,0.95302,0.00165,0.00597,3,12113,0,7160,0.00000,0.00000,0.00000,0,0,nan,0,0,0,4319,187491,0,0,0.000,0.000,0.000,0,0.000,0.000,0.000,0,0,4,0,0
PPG,3,109199,4369511552,25,516,528,0.000,0.000,0.000,0,0,0,0,0.00,nan,4,3,1,nan,3,3,24,1,1,15,15,0,0,0,75896959,0.03735,0.00879,0.95483,0.95560,-0.00558,-0.00081,-0.00194,0.00597,0.95560,0.01223,0.00706,3,12117,0,7160,0.00000,0.00000,0.00000,0,0,nan,0,0,0,2598,187491,0,0,0.000,0.000,0.000,0,0.000,0.000,0.000,0,0,4,0,0
PPG,3,109200,4369551552,25,515,515,0.000,0.000,0.000,0,0,0,0,0.00,nan,4,3,1,nan,3,3,24,1,1,16,16,0,0,0,75938111,0.04126,0.00537,0.96143,0.96233,-0.00558,-0.00161,-0.00167,0.00605,0.96535,0.02370,0.00659,3,12126,0,7160,0.00000,0.00000,0.00000,0,0,nan,0,0,0,4297,187491,0,0,0.000,0.000,0.000,0,0.000,0.000,0.000,0,0,4,0,0
PPG,3,109201,4369591552,26,531,525,0.000,0.000,0.000,0,0,0,0,0.00,nan,4,3,1,nan,3,3,24,1,1,17,17,0,0,0,75976788,0.04224,0.00708,0.94556,0.94653,-0.00585,-0.00241,-0.00194,0.00662,0.95517,0.00716,0.00662,3,12273,0,7160,0.00000,0.00000,0.00000,0,0,nan,0,0,0,2644,187491,0,0,0.000,0.000,0.000,0,0.000,0.000,0.000,0,0,4,0,0
PPG,3,109202,4369631552,25,531,544,0.000,0.000,0.000,0,0,0,0,0.00,nan,4,3,1,nan,3,3,24,1,1,18,18,0,0,0,76018213,0.03516,0.00635,0.94946,0.95013,-0.00479,-0.00081,-0.00114,0.00499,0.95770,0.00821,0.00649,3,12110,0,7160,0.00000,0.00000,0.00000,0,0,nan,0,0,0,4298,187491,0,0,0.000,0.000,0.000,0,0.000,0.000,0.000,0,0,4,0,0
PPG,3,109203,4369671552,25,541,541,0.000,0.000,0.000,0,0,0,0,0.00,nan,4,3,1,nan,3,3,24,1,1,19,19,0,0,0,76056700,0.03882,0.00854,0.95532,0.95615,-0.00665,0.00052,-0.00007,0.00667,0.95615,0.00928,0.00667,3,12109,0,7160,0.00000,0.00000,0.00000,0,0,nan,0,0,0,2597,187491,0,0,0.000,0.000,0.000,0,0.000,0.000,0.000,0,0,4,0,0
PPG,3,109204,4369711552,25,538,525,0.000,0.000,0.000,0,0,0,0,0.00,nan,4,3,1,nan,3,3,24,1,1,20,20,0,0,0,76097970,0.03491,0.00854,0.94263,0.94331,-0.00532,0.00025,-0.00194,0.00567,0.95624,0.01292,0.00614,3,12196,0,7160,0.00000,0.00000,0.00000,0,0,nan,0,0,0,4356,187491,0,0,0.000,0.000,0.000,0,0.000,0.000,0.000,0,0,4,0,0
PPG,3,109205,4369751552,25,533,538,0.000,0.000,0.000,0,0,0,0,0.00,nan,4,3,1,nan,3,3,24,1,1,21,21,0,0,0,76136524,0.03931,0.00732,0.95264,0.95348,-0.00612,-0.00215,-0.00061,0.00651,0.95535,0.01150,0.00651,3,12125,0,7160,0.00000,0.00000,0.00000,0,0,nan,0,0,0,2650,187491,0,0,0.000,0.000,0.000,0,0.000,0.000,0.000,0,0,4,0,0
PPG,3,109206,4369791552,38,525,523,0.000,0.000,0.000,0,0,0,0,0.00,nan,4,3,1,nan,3,3,24,1,1,22,22,0,0,0,76177856,0.03516,0.00586,0.95801,0.95867,-0.00692,0.00052,-0.00141,0.00708,0.95867,0.00483,0.00708,3,12192,0,7160,0.00000,0.00000,0.00000,0,0,nan,0,0,0,4336,187491,0,0,0.000,0.000,0.000,0,0.000,0.000,0.000,0,0,4,0,0
PPG,3,109207,4369831552,25,536,532,0.000,0.000,0.000,0,0,0,0,0.00,nan,4,3,1,nan,3,3,24,1,1,23,23,0,0,0,76216897,0.03760,0.00830,0.95068,0.95146,-0.00665,-0.00081,-0.00087,0.00676,0.95485,0.01120,0.00676,3,12251,0,7160,0.00000,0.00000,0.00000,0,0,nan,0,0,0,2638,187491,0,0,0.000,0.000,0.000,0,0.000,0.000,0.000,0,0,4,0,0
PPG,3,109208,4369871552,25,534,533,0.000,0.000,0.000,0,0,0,0,0.00,nan,4,3,1,nan,3,3,24,1,1,24,24,0,0,0,76258439,0.03589,0.00732,0.94751,0.94822,-0.00558,-0.00135,-0.00167,0.00598,0.95942,0.01158,0.00644,3,12258,0,7160,0.00000,0.00000,0.00000,0,0,nan,0,0,0,4332,187491,0,0,0.000,0.000,0.000,0,0.000,0.000,0.000,0,0,4,0,0
PPG,3,109209,4369911552,25,540,530,0.000,0.000,0.000,0,0,0,0,0.00,nan,4,3,1,nan,3,3,24,1,1,25,25,0,0,0,76297278,0.04297,0.00488,0.94751,0.94850,-0.00638,-0.00108,-0.00061,0.00650,0.95361,0.00539,0.00650,3,12186,0,7160,0.00000,0.00000,0.00000,0,0,nan,0,0,0,2625,187491,0,0,0.000,0.000,0.000,0,0.000,0.000,0.000,0,0,4,0,0
PPG,3,109210,4369951552,26,533,528,0.000,0.000,0.000,0,0,0,0,0.00,nan,4,3,1,nan,3,3,24,1,1,26,26,0,0,0,76338796,0.03784,0.00122,0.95728,0.95802,-0.00585,-0.00001,-0.00114,0.00596,0.95802,0.00720,0.00596,3,12251,0,7160,0.00000,0.00000,0.00000,0,0,nan,0,0,0,4344,187491,0,0,0.000,0.000,0.000,0,0.000,0.000,0.000,0,0,4,0,0
PPG,3,109211,4369991552,26,536,517,0.000,0.000,0.000,0,0,0,0,0.00,nan,4,3,1,nan,3,3,24,1,1,27,27,0,0,0,76374882,0.03687,0.00317,0.94189,0.94262,-0.00585,-0.00028,-0.00247,0.00636,0.95383,0.01121,0.00636,2,21729,0,7161,0.00000,0.00000,0.00000,0,0,nan,0,0,0,2616,187491,0,0,0.000,0.000,0.000,0,0.000,0.000,0.000,0,0,4,0,0
PPG,3,109212,4370031552,26,527,533,0.000,0.000,0.000,0,0,0,0,0.00,nan,4,3,1,nan,3,3,24,1,1,28,28,0,0,0,76419126,0.03784,0.01050,0.94434,0.94515,-0.00505,-0.00028,-0.00087,0.00513,0.95440,0.01178,0.00617,3,12257,0,7161,0.00000,0.00000,0.00000,0,0,nan,0,0,0,4336,187491,0,0,0.000,0.000,0.000,0,0.000,0.000,0.000,0,0,4,0,0
PPG,3,109213,4370071552,26,532,535,0.000,0.000,0.000,0,0,0,0,0.00,nan,4,3,1,nan,3,3,24,1,1,29,29,0,0,0,76457962,0.04077,0.00830,0.94800,0.94891,-0.00638,0.00052,-0.00194,0.00669,0.95178,0.00631,0.00669,3,12204,0,7161,0.00000,0.00000,0.00000,0,0,nan,0,0,0,4352,187491,0,0,0.000,0.000,0.000,0,0.000,0.000,0.000,0,0,4,0,0
PPG,3,109214,4370111552,25,532,536,0.000,0.000,0.000,0,0,0,0,0.00,nan,4,3,1,nan,3,3,24,1,1,30,30,0,0,0,76496924,0.03882,0.00781,0.95117,0.95200,-0.00505,-0.00135,-0.00087,0.00530,0.95498,0.00668,0.00676,3,12261,0,7161,0.00000,0.00000,0.00000,0,0,nan,0,0,0,2634,187491,0,0,0.000,0.000,0.000,0,0.000,0.000,0.000,0,0,4,0,0
PPG,3,109215,4370151552,25,532,530,0.000,0.000,0.000,0,0,0,0,0.00,nan,4,3,1,nan,3,3,24,1,1,31,31,0,0,0,76538354,0.04004,0.00342,0.94995,0.95080,-0.00612,-0.00081,-0.00061,0.00620,0.95647,0.00567,0.00673,3,12216,0,7161,0.00000,0.00000,0.00000,0,0,nan,0,0,0,4333,187491,0,0,0.000,0.000,0.000,0,0.000,0.000,0.000,0,0,4,0,0
PPG,3,109216,4370191552,26,532,525,0.000,0.000,0.000,0,0,0,0,0.00,nan,4,3,1,nan,3,3,24,1,1,0,0,0,0,0,76577201,0.03760,0.00464,0.94629,0.94705,-0.00532,-0.00028,-0.00141,0.00551,0.94998,0.00293,0.00612,3,12236,0,7161,0.00000,0.00000,0.00000,0,0,nan,0,0,0,2629,187491,0,0,0.000,0.000,0.000,0,0.000,0.000,0.000,0,0,4,0,0
PPG,3,109217,4370231552,26,531,525,0.000,0.000,0.000,0,0,0,0,0.00,nan,4,3,1,nan,3,3,24,1,1,1,1,0,0,0,76618669,0.03809,0.00806,0.95532,0.95612,-0.00638,-0.00108,-0.00167,0.00669,0.95876,0.01172,0.00669,3,12223,0,7161,0.00000,0.00000,0.00000,0,0,nan,0,0,0,4326,187491,0,0,0.000,0.000,0.000,0,0.000,0.000,0.000,0,0,4,0,0
PPG,3,109218,4370271552,25,530,524,0.000,0.000,0.000,0,0,0,0,0.00,nan,4,3,1,nan,3,3,24,1,1,2,2,0,0,0,76657468,0.03467,0.00513,0.94751,0.94816,-0.00558,-0.00055,-0.00167,0.00586,0.94816,0.00831,0.00701,3,12211,0,7161,0.00000,0.00000,0.00000,0,0,nan,0,0,0,2634,187491,0,0,0.000,0.000,0.000,0,0.000,0.000,0.000,0,0,4,0,0
PPG,3,109219,4370311552,25,533,539,0.000,0.000,0.000,0,0,0,0,0.00,nan,4,3,1,nan,3,3,24,1,1,3,3,0,0,0,76698998,0.04053,0.00732,0.94409,0.94499,-0.00558,-0.00108,-0.00087,0.00575,0.95457,0.00695,0.00690,3,12258,0,7161,0.00000,0.00000,0.00000,0,0,nan,0,0,0,4357,187491,0,0,0.000,0.000,0.000,0,0.000,0.000,0.000,0,0,4,0,0
PPG,3,109220,4370351552,25,529,528,0.000,0.000,0.000,0,0,0,0,0.00,nan,4,3,1,nan,3,3,24,1,1,4,4,0,0,0,76737858,0.03540,0.00757,0.95117,0.95186,-0.00692,-0.00001,-0.00114,0.00701,0.95373,0.00959,0.00701,3,12242,0,7161,0.00000,0.00000,0.00000,0,0,nan,0,0,0,2637,187491,0,0,0.000,0.000,0.000,0,0.000,0.000,0.000,0,0,4,0,0
PPG,3,109221,4370391552,39,526,527,0.000,0.000,0.000,0,0,0,0,0.00,nan,4,3,1,nan,3,3,24,1,1,5,5,0,0,0,76779341,0.03857,0.00684,0.95093,0.95173,-0.00612,0.00052,-0.00061,0.00617,0.95347,0.00174,0.00645,3,12228,0,7161,0.00000,0.00000,0.00000,0,0,nan,0,0,0,4318,187491,0,0,0.000,0.000,0.000,0,0.000,0.000,0.000,0,0,4,0,0
PPG,3,109222,4370431552,25,528,526,0.000,0.000,0.000,0,0,0,0,0.00,nan,4,3,1,nan,3,3,24,1,1,6,6,0,0,0,76818075,0.03662,0.00732,0.95288,0.95361,-0.00585,-0.00028,-0.00167,0.00609,0.95501,0.00631,0.00609,3,12138,0,7161,0.00000,0.00000,0.00000,0,0,nan,0,0,0,4304,187491,0,0,0.000,0.000,0.000,0,0.000,0.000,0.000,0,0,4,0,0
PPG,3,109223,4370471552,25,536,545,0.000,0.000,0.000,0,0,0,0,0.00,nan,4,3,1,nan,3,3,24,1,1,7,7,0,0,0,76856756,0.03931,0.00562,0.95337,0.95420,-0.00612,0.00052,-0.00167,0.00636,0.95420,0.00509,0.00682,3,12124,0,7161,0.00000,0.00000,0.00000,0,0,nan,0,0,0,2598,187491,0,0,0.000,0.000,0.000,0,0.000,0.000,0.000,0,0,4,0,0
PPG,3,109224,4370511552,25,533,533,0.000,0.000,0.000,0,0,0,0,0.00,nan,4,3,1,nan,3,3,24,1,1,8,8,0,0,0,76897952,0.03662,0.00854,0.95093,0.95167,-0.00532,0.00025,-0.00194,0.00567,0.95411,0.00852,0.00567,3,12167,0,7161,0.00000,0.00000,0.00000,0,0,nan,0,0,0,2597,187491,0,0,0.000,0.000,0.000,0,0.000,0.000,0.000,0,0,4,0,0
PPG,3,109225,4370551552,25,532,536,0.000,0.000,0.000,0,0,0,0,0.00,nan,4,3,1,nan,3,3,24,1,1,9,9,0,0,0,76939102,0.04053,0.01025,0.95508,0.95599,-0.00452,-0.00001,-0.00114,0.00466,0.95599,0.00425,0.00620,3,12124,0,7161,0.00000,0.00000,0.00000,0,0,nan,0,0,0,4299,187491,0,0,0.000,0.000,0.000,0,0.000,0.000,0.000,0,0,4,0,0
PPG,3,109226,4370591552,26,541,537,0.000,0.000,0.000,0,0,0,0,0.00,nan,4,3,1,nan,3,3,24,1,1,10,10,0,0,0,76977606,0.03662,0.00293,0.95313,0.95383,-0.00638,-0.00055,-0.00167,0.00662,0.95383,0.00453,0.00662,3,12123,0,7161,0.00000,0.00000,0.00000,0,0,nan,0,0,0,2595,187491,0,0,0.000,0.000,0.000,0,0.000,0.000,0.000,0,0,4,0,0
PPG,3,109227,4370631552,25,544,539,0.000,0.000,0.000,0,0,0,0,0.00,nan,4,3,1,nan,3,3,24,1,1,11,11,0,0,0,77018745,0.03931,0.00610,0.94727,0.94810,-0.00612,-0.00055,-0.00274,0.00672,0.95537,0.00646,0.00712,3,12113,0,7161,0.00000,0.00000,0.00000,0,0,nan,0,0,0,4298,187491,0,0,0.000,0.000,0.000,0,0.000,0.000,0.000,0,0,4,0,0
PPG,3,109228,4370671552,25,506,530,0.000,0.000,0.000,0,0,0,0,0.00,nan,4,3,1,nan,3,3,24,1,1,12,12,0,0,0,77057283,0.03711,0.00244,0.94849,0.94922,-0.00585,-0.00001,-0.00114,0.00596,0.95488,0.00567,0.00718,3,12130,0,7161,0.00000,0.00000,0.00000,0,0,nan,0,0,0,2609,187491,0,0,0.000,0.000,0.000,0,0.000,0.000,0.000,0,0,4,0,0
PPG,3,109229,4370711552,25,516,514,0.000,0.000,0.000,0,0,0,0,0.00,nan,4,3,1,nan,3,3,24,1,1,13,13,0,0,0,77098475,0.03931,0.00854,0.95654,0.95739,-0.00532,-0.00001,-0.00087,0.00539,0.95739,0.00820,0.00615,3,12169,0,7161,0.00000,0.00000,0.00000,0,0,nan,0,0,0,4309,187491,0,0,0.000,0.000,0.000,0,0.000,0.000,0.000,0,0,4,0,0
PPG,3,109230,4370751552,26,542,536,0.000,0.000,0.000,0,0,0,0,0.00,nan,4,3,1,nan,3,3,24,1,1,14,14,0,0,0,77136994,0.04053,0.00635,0.95996,0.96084,-0.00505,-0.00081,-0.00087,0.00519,0.96084,0.00772,0.00618,3,12116,0,7161,0.00000,0.00000,0.00000,0,0,nan,0,0,0,2595,187491,0,0,0.000,0.000,0.000,0,0.000,0.000,0.000,0,0,4,0,0
PPG,3,109231,4370791552,26,535,531,0.000,0.000,0.000,0,0,0,0,0.00,nan,4,3,1,nan,3,3,24,1,1,15,15,0,0,0,77178103,0.03833,0.00586,0.94800,0.94879,-0.00558,-0.00055,-0.00194,0.00594,0.95254,0.00830,0.00594,3,12118,0,7161,0.00000,0.00000,0.00000,0,0,nan,0,0,0,2594,187491,0,0,0.000,0.000,0.000,0,0.000,0.000,0.000,0,0,4,0,0
PPG,3,109232,4370831552,25,530,542,0.000,0.000,0.000,0,0,0,0,0.00,nan,4,3,1,nan,3,3,24,1,1,16,16,0,0,0,77219244,0.03296,0.00830,0.95020,0.95080,-0.00532,-0.00108,-0.00247,0.00596,0.95080,0.00245,0.00596,3,12110,0,7161,0.00000,0.00000,0.00000,0,0,nan,0,0,0,4295,187491,0,0,0.000,0.000,0.000,0,0.000,0.000,0.000,0,0,4,0,0
PPG,3,109233,4370871552,25,536,539,0.000,0.000,0.000,0,0,0,0,0.00,nan,4,3,1,nan,3,3,24,1,1,17,17,0,0,0,77257800,0.03784,0.00537,0.95703,0.95779,-0.00692,-0.00028,-0.00194,0.00719,0.95779,0.00654,0.00719,3,12135,0,7161,0.00000,0.00000,0.00000,0,0,nan,0,0,0,2599,187491,0,0,0.000,0.000,0.000,0,0.000,0.000,0.000,0,0,4,0,0
PPG,3,109234,4370911552,25,512,517,0.000,0.000,0.000,0,0,0,0,0.00,nan,4,3,1,nan,3,3,24,1,1,18,18,0,0,0,77298988,0.04077,0.00952,0.95679,0.95770,-0.00585,-0.00055,-0.00221,0.00628,0.95770,0.00584,0.00628,3,12157,0,7161,0.00000,0.00000,0.00000,0,0,nan,0,0,0,4323,187491,0,0,0.000,0.000,0.000,0,0.000,0.000,0.000,0,0,4,0,0
PPG,3,109235,4370951552,25,522,519,0.000,0.000,0.000,0,0,0,0,0.00,nan,4,3,1,nan,3,3,24,1,1,19,19,0,0,0,77337530,0.03979,0.00781,0.95117,0.95204,-0.00585,-0.00055,-0.00194,0.00619,0.95653,0.00671,0.00642,3,12117,0,7161,0.00000,0.00000,0.00000,0,0,nan,0,0,0,2599,187491,0,0,0.000,0.000,0.000,0,0.000,0.000,0.000,0,0,4,0,0
PPG,3,109236,4370991552,25,536,535,0.000,0.000,0.000,0,0,0,0,0.00,nan,4,3,1,nan,3,3,24,1,1,20,20,0,0,0,77375854,0.04028,0.00610,0.94824,0.94912,-0.00505,-0.00081,-0.00061,0.00515,0.94912,0.00298,0.00550,2,21469,0,7162,0.00000,0.00000,0.00000,0,0,nan,0,0,0,2606,187491,0,0,0.000,0.000,0.000,0,0.000,0.000,0.000,0,0,4,0,0
PPG,3,109237,4371031552,25,532,525,0.000,0.000,0.000,0,0,0,0,0.00,nan,4,3,1,nan,3,3,24,1,1,21,21,0,0,0,77417300,0.04053,0.00635,0.94775,0.94864,-0.00665,-0.00001,-0.00087,0.00671,0.95864,0.00952,0.00671,3,12277,0,7162,0.00000,0.00000,0.00000,0,0,nan,0,0,0,2644,187491,0,0,0.000,0.000,0.000,0,0.000,0.000,0.000,0,0,4,0,0
PPG,3,109238,4371071552,25,539,527,0.000,0.000,0.000,0,0,0,0,0.00,nan,4,3,1,nan,3,3,24,1,1,22,22,0,0,0,77458561,0.04150,0.00952,0.94800,0.94895,-0.00479,-0.00081,-0.00141,0.00505,0.95676,0.01275,0.00544,3,12112,0,7162,0.00000,0.00000,0.00000,0,0,nan,0,0,0,4301,187491,0,0,0.000,0.000,0.000,0,0.000,0.000,0.000,0,0,4,0,0
PPG,3,109239,4371111552,25,536,529,0.000,0.000,0.000,0,0,0,0,0.00,nan,4,3,1,nan,3,3,24,1,1,23,23,0,0,0,77497066,0.03882,0.00830,0.95337,0.95420,-0.00479,-0.00081,-0.00194,0.00523,0.95512,0.00593,0.00622,3,12111,0,7162,0.00000,0.00000,0.00000,0,0,nan,0,0,0,2594,187491,0,0,0.000,0.000,0.000,0,0.000,0.000,0.000,0,0,4,0,0
PPG,3,109240,4371151552,26,544,529,0.000,0.000,0.000,0,0,0,0,0.00,nan,4,3,1,nan,3,3,24,1,1,24,24,0,0,0,77538373,0.03857,0.00659,0.94849,0.94929,-0.00558,-0.00055,-0.00247,0.00613,0.94929,0.00535,0.00660,3,12241,0,7162,0.00000,0.00000,0.00000,0,0,nan,0,0,0,4299,187491,0,0,0.000,0.000,0.000,0,0.000,0.000,0.000,0,0,4,0,0
PPG,3,109241,4371191552,25,533,531,0.000,0.000,0.000,0,0,0,0,0.00,nan,4,3,1,nan,3,3,24,1,1,25,25,0,0,0,77577038,0.03735,0.00391,0.94946,0.95021,-0.00638,-0.00215,-0.00167,0.00694,0.95312,0.00449,0.00696,3,12166,0,7162,0.00000,0.00000,0.00000,0,0,nan,0,0,0,2603,187491,0,0,0.000,0.000,0.000,0,0.000,0.000,0.000,0,0,4,0,0
PPG,3,109242,4371231552,31,526,530,0.000,0.000,0.000,0,0,0,0,0.00,nan,4,3,1,nan,3,3,24,1,1,26,26,0,0,0,77618482,0.03687,0.00610,0.94482,0.94556,-0.00532,0.00105,-0.00247,0.00596,0.95682,0.01126,0.00662,3,12300,0,7162,0.00000,0.00000,0.00000,0,0,nan,0,0,0,4323,187491,0,0,0.000,0.000,0.000,0,0.000,0.000,0.000,0,0,4,0,0
PPG,3,109243,4371271552,26,532,524,0.000,0.000,0.000,0,0,0,0,0.00,nan,4,3,1,nan,3,3,24,1,1,27,27,0,0,0,77657375,0.03711,0.00586,0.95361,0.95435,-0.00612,0.00132,-0.00247,0.00673,0.95725,0.01238,0.00673,3,12250,0,7162,0.00000,0.00000,0.00000,0,0,nan,0,0,0,2655,187491,0,0,0.000,0.000,0.000,0,0.000,0.000,0.000,0,0,4,0,0
PPG,3,109244,4371311552,31,527,533,0.000,0.000,0.000,0,0,0,0,0.00,nan,4,3,1,nan,3,3,24,1,1,28,28,0,0,0,77698870,0.03735,0.00659,0.95581,0.95656,-0.00638,0.00079,-0.00194,0.00672,0.95656,0.01088,0.00693,3,12211,0,7162,0.00000,0.00000,0.00000,0,0,nan,0,0,0,4327,187491,0,0,0.000,0.000,0.000,0,0.000,0.000,0.000,0,0,4,0,0
PPG,3,109245,4371351552,25,538,531,0.000,0.000,0.000,0,0,0,0,0.00,nan,4,3,1,nan,3,3,24,1,1,29,29,0,0,0,77737859,0.03613,0.00659,0.95361,0.95432,-0.00585,-0.00161,-0.00300,0.00677,0.95432,0.00812,0.00677,3,12244,0,7162,0.00000,0.00000,0.00000,0,0,nan,0,0,0,2640,187491,0,0,0.000,0.000,0.000,0,0.000,0.000,0.000,0,0,4,0,0
PPG,3,109246,4371391552,25,535,535,0.000,0.000,0.000,0,0,0,0,0.00,nan,4,3,1,nan,3,3,24,1,1,30,30,0,0,0,77779394,0.04126,0.00708,0.95361,0.95453,-0.00585,-0.00001,-0.00167,0.00609,0.95453,0.00717,0.00670,3,12240,0,7162,0.00000,0.00000,0.00000,0,0,nan,0,0,0,4314,187491,0,0,0.000,0.000,0.000,0,0.000,0.000,0.000,0,0,4,0,0
PPG,3,109247,4371431552,25,538,533,0.000,0.000,0.000,0,0,0,0,0.00,nan,4,3,1,nan,3,3,24,1,1,31,31,0,0,0,77818309,0.04028,-0.00098,0.95703,0.95788,-0.00612,-0.00321,-0.00274,0.00743,0.95788,0.00619,0.00743,3,12309,0,7162,0.00000,0.00000,0.00000,0,0,nan,0,0,0,4343,187491,0,0,0.000,0.000,0.000,0,0.000,0.000,0.000,0,0,4,0,0
PPG,3,109248,4371471552,30,531,531,0.000,0.000,0.000,0,0,0,0,0.00,nan,4,3,1,nan,3,3,24,1,1,0,0,0,0,0,77857155,0.03467,0.00635,0.94727,0.94792,-0.00612,-0.00215,-0.00114,0.00658,0.95248,0.01448,0.00658,3,12230,0,7162,0.00000,0.00000,0.00000,0,0,nan,0,0,0,2618,187491,0,0,0.000,0.000,0.000,0,0.000,0.000,0.000,0,0,4,0,0
PPG,3,109249,4371511552,26,526,524,0.000,0.000,0.000,0,0,0,0,0.00,nan,4,3,1,nan,3,3,24,1,1,1,1,0,0,0,77898639,0.03687,0.00635,0.95142,0.95215,-0.00558,-0.00348,-0.00061,0.00661,0.96452,0.01237,0.00661,3,12257,0,7162,0.00000,0.00000,0.00000,0,0,nan,0,0,0,4338,187491,0,0,0.000,0.000,0.000,0,0.000,0.000,0.000,0,0,4,0,0
PPG,3,109250,4371551552,25,528,524,0.000,0.000,0.000,0,0,0,0,0.00,nan,4,3,1,nan,3,3,24,1,1,2,2,0,0,0,77937597,0.03735,0.00537,0.94409,0.94485,-0.00692,-0.00135,-0.00114,0.00714,0.95930,0.01446,0.00714,3,12262,0,7162,0.00000,0.00000,0.00000,0,0,nan,0,0,0,2611,187491,0,0,0.000,0.000,0.000,0,0.000,0.000,0.000,0,0,4,0,0
PPG,3,109251,4371591552,25,534,534,0.000,0.000,0.000,0,0,0,0,0.00,nan,4,3,1,nan,3,3,24,1,1,3,3,0,0,0,77979000,0.03979,0.00781,0.95313,0.95399,-0.00505,-0.00108,-0.00167,0.00543,0.95435,0.00951,0.00745,3,12239,0,7162,0.00000,0.00000,0.00000,0,0,nan,0,0,0,4354,187491,0,0,0.000,0.000,0.000,0,0.000,0.000,0.000,0,0,4,0,0
PPG,3,109252,4371631552,25,529,531,0.000,0.000,0.000,0,0,0,0,0.00,nan,4,3,1,nan,3,3,24,1,1,4,4,0,0,0,78017876,0.03906,0.00537,0.95410,0.95492,-0.00612,-0.00135,-0.00007,0.00626,0.95554,0.00220,0.00626,3,12265,0,7162,0.00000,0.00000,0.00000,0,0,nan,0,0,0,2638,187491,0,0,0.000,0.000,0.000,0,0.000,0.000,0.000,0,0,4,0,0
PPG,3,109253,4371671552,25,542,533,0.000,0.000,0.000,0,0,0,0,0.00,nan,4,3,1,nan,3,3,24,1,1,5,5,0,0,0,78059382,0.03931,0.01196,0.94482,0.94572,-0.00505,0.00105,-0.00141,0.00535,0.95711,0.00837,0.00637,3,12256,0,7162,0.00000,0.00000,0.00000,0,0,nan,0,0,0,4333,187491,0,0,0.000,0.000,0.000,0,0.000,0.000,0.000,0,0,4,0,0
PPG,3,109254,4371711552,25,536,531,0.000,0.000,0.000,0,0,0,0,0.00,nan,4,3,1,nan,3,3,24,1,1,6,6,0,0,0,78098198,0.03442,0.00635,0.94409,0.94474,-0.00585,0.00132,-0.00274,0.00659,0.95348,0.00874,0.00659,3,12227,0,7162,0.00000,0.00000,0.00000,0,0,nan,0,0,0,2624,187491,0,0,0.000,0.000,0.000,0,0.000,0.000,0.000,0,0,4,0,0
PPG,3,109255,4371751552,26,526,532,0.000,0.000,0.000,0,0,0,0,0.00,nan,4,3,1,nan,3,3,24,1,1,7,7,0,0,0,78139752,0.04175,0.00684,0.95264,0.95358,-0.00692,-0.00081,-0.00087,0.00702,0.95610,0.01136,0.00702,3,12248,0,7162,0.00000,0.00000,0.00000,0,0,nan,0,0,0,4343,187491,0,0,0.000,0.000,0.000,0,0.000,0.000,0.000,0,0,4,0,0
PPG,3,109256,4371791552,25,528,528,0.000,0.000,0.000,0,0,0,0,0.00,nan,4,3,1,nan,3,3,24,1,1,8,8,0,0,0,78178578,0.03491,0.00610,0.94409,0.94476,-0.00505,-0.00001,-0.00167,0.00532,0.95564,0.01088,0.00614,3,12216,0,7162,0.00000,0.00000,0.00000,0,0,nan,0,0,0,4325,187491,0,0,0.000,0.000,0.000,0,0.000,0.000,0.000,0,0,4,0,0
PPG,3,109257,4371831552,25,538,531,0.000,0.000,0.000,0,0,0,0,0.00,nan,4,3,1,nan,3,3,24,1,1,9,9,0,0,0,78217421,0.03589,0.01025,0.94922,0.94995,-0.00585,-0.00028,-0.00061,0.00589,0.95169,0.00693,0.00656,3,12280,0,7162,0.00000,0.00000,0.00000,0,0,nan,0,0,0,2627,187491,0,0,0.000,0.000,0.000,0,0.000,0.000,0.000,0,0,4,0,0
PPG,3,109258,4371871552,25,539,530,0.000,0.000,0.000,0,0,0,0,0.00,nan,4,3,1,nan,3,3,24,1,1,10,10,0,0,0,78258775,0.03418,0.00952,0.95068,0.95135,-0.00558,-0.00001,-0.00167,0.00583,0.95404,0.00572,0.00660,3,12311,0,7162,0.00000,0.00000,0.00000,0,0,nan,0,0,0,4313,187491,0,0,0.000,0.000,0.000,0,0.000,0.000,0.000,0,0,4,0,0
PPG,3,109259,4371911552,25,534,528,0.000,0.000,0.000,0,0,0,0,0.00,nan,4,3,1,nan,3,3,24,1,1,11,11,0,0,0,78297322,0.04272,0.00708,0.94995,0.95094,-0.00479,-0.00028,-0.00087,0.00487,0.95140,0.00162,0.00563,3,12143,0,7162,0.00000,0.00000,0.00000,0,0,nan,0,0,0,2596,187491,0,0,0.000,0.000,0.000,0,0.000,0.000,0.000,0,0,4,0,0
PPG,3,109260,4371951552,25,533,529,0.000,0.000,0.000,0,0,0,0,0.00,nan,4,3,1,nan,3,3,24,1,1,12,12,0,0,0,78338488,0.03955,0.00708,0.94897,0.94982,-0.00532,-0.00028,-0.00274,0.00599,0.94982,0.00206,0.00651,3,12133,0,7162,0.00000,0.00000,0.00000,0,0,nan,0,0,0,2596,187491,0,0,0.000,0.000,0.000,0,0.000,0.000,0.000,0,0,4,0,0
PPG,3,109261,4371991552,25,536,537,0.000,0.000,0.000,0,0,0,0,0.00,nan,4,3,1,nan,3,3,24,1,1,13,13,0,0,0,78376817,0.03613,0.01050,0.95093,0.95167,-0.00505,-0.00028,-0.00087,0.00513,0.95167,0.00133,0.00598,2,21474,0,7163,0.00000,0.00000,0.00000,0,0,nan,0,0,0,2595,187491,0,0,0.000,0.000,0.000,0,0.000,0.000,0.000,0,0,4,0,0
PPG,3,109262,4372031552,37,536,528,0.000,0.000,0.000,0,0,0,0,0.00,nan,4,3,1,nan,3,3,24,1,1,14,14,0,0,0,78418041,0.03760,0.00732,0.94800,0.94877,-0.00585,-0.00055,-0.00114,0.00599,0.95563,0.00788,0.00599,3,12122,0,7163,0.00000,0.00000,0.00000,0,0,nan,0,0,0,2644,187491,0,0,0.000,0.000,0.000,0,0.000,0.000,0.000,0,0,4,0,0
PPG,3,109263,4372071552,26,533,541,0.000,0.000,0.000,0,0,0,0,0.00,nan,4,3,1,nan,3,3,24,1,1,15,15,0,0,0,78459353,0.04370,0.00464,0.95093,0.95194,-0.00558,-0.00081,-0.00061,0.00568,0.95194,0.00225,0.00655,3,12125,0,7163,0.00000,0.00000,0.00000,0,0,nan,0,0,0,4301,187491,0,0,0.000,0.000,0.000,0,0.000,0.000,0.000,0,0,4,0,0
PPG,3,109264,4372111552,25,522,510,0.000,0.000,0.000,0,0,0,0,0.00,nan,4,3,1,nan,3,3,24,1,1,16,16,0,0,0,78497862,0.03882,0.00537,0.95190,0.95271,-0.00558,-0.00001,-0.00167,0.00583,0.95271,0.00587,0.00630,3,12110,0,7163,0.00000,0.00000,0.00000,0,0,nan,0,0,0,2600,187491,0,0,0.000,0.000,0.000,0,0.000,0.000,0.000,0,0,4,0,0
PPG,3,109265,4372151552,25,528,535,0.000,0.000,0.000,0,0,0,0,0.00,nan,4,3,1,nan,3,3,24,1,1,17,17,0,0,0,78539050,0.03784,0.00830,0.95679,0.95757,-0.00585,0.00025,-0.00167,0.00609,0.95860,0.01018,0.00642,3,12156,0,7163,0.00000,0.00000,0.00000,0,0,nan,0,0,0,4305,187491,0,0,0.000,0.000,0.000,0,0.000,0.000,0.000,0,0,4,0,0
PPG,3,109266,4372191552,25,531,533,0.000,0.000,0.000,0,0,0,0,0.00,nan,4,3,1,nan,3,3,24,1,1,18,18,0,0,0,78577575,0.03857,0.00684,0.94727,0.94808,-0.00612,-0.00081,-0.00114,0.00628,0.95230,0.00527,0.00673,3,12125,0,7163,0.00000,0.00000,0.00000,0,0,nan,0,0,0,2595,187491,0,0,0.000,0.000,0.000,0,0.000,0.000,0.000,0,0,4,0,0
PPG,3,109267,4372231552,25,542,534,0.000,0.000,0.000,0,0,0,0,0.00,nan,4,3,1,nan,3,3,24,1,1,19,19,0,0,0,78618713,0.03931,0.01001,0.94971,0.95057,-0.00558,-0.00028,-0.00247,0.00611,0.95498,0.00870,0.00721,3,12124,0,7163,0.00000,0.00000,0.00000,0,0,nan,0,0,0,4301,187491,0,0,0.000,0.000,0.000,0,0.000,0.000,0.000,0,0,4,0,0
PPG,3,109268,4372271552,25,533,543,0.000,0.000,0.000,0,0,0,0,0.00,nan,4,3,1,nan,3,3,24,1,1,20,20,0,0,0,78657297,0.04102,0.00269,0.95752,0.95840,-0.00638,0.00052,-0.00114,0.00651,0.95840,0.00986,0.00686,3,12127,0,7163,0.00000,0.00000,0.00000,0,0,nan,0,0,0,2597,187491,0,0,0.000,0.000,0.000,0,0.000,0.000,0.000,0,0,4,0,0
PPG,3,109269,4372311552,25,526,519,0.000,0.000,0.000,0,0,0,0,0.00,nan,4,3,1,nan,3,3,24,1,1,21,21,0,0,0,78698421,0.03809,0.00684,0.95068,0.95147,-0.00558,-0.00028,-0.00221,0.00601,0.95237,0.00783,0.00644,3,12130,0,7163,0.00000,0.00000,0.00000,0,0,nan,0,0,0,2601,187491,0,0,0.000,0.000,0.000,0,0.000,0.000,0.000,0,0,4,0,0
PPG,3,109270,4372351552,25,534,526,0.000,0.000,0.000,0,0,0,0,0.00,nan,4,3,1,nan,3,3,24,1,1,22,22,0,0,0,78739590,0.03760,0.00708,0.94629,0.94706,-0.00638,0.00079,-0.00167,0.00665,0.95309,0.00573,0.00665,3,12173,0,7163,0.00000,0.00000,0.00000,0,0,nan,0,0,0,4296,187491,0,0,0.000,0.000,0.000,0,0.000,0.000,0.000,0,0,4,0,0
PPG,3,109271,4372391552,31,534,529,0.000,0.000,0.000,0,0,0,0,0.00,nan,4,3,1,nan,3,3,24,1,1,23,23,0,0,0,78778117,0.03687,0.00415,0.95166,0.95238,-0.00532,-0.00028,-0.00167,0.00558,0.95560,0.00854,0.00577,3,12128,0,7163,0.00000,0.00000,0.00000,0,0,nan,0,0,0,2595,187491,0,0,0.000,0.000,0.000,0,0.000,0.000,0.000,0,0,4,0,0
PPG,3,109272,4372431552,25,532,535,0.000,0.000,0.000,0,0,0,0,0.00,nan,4,3,1,nan,3,3,24,1,1,24,24,0,0,0,78819280,0.03613,0.00366,0.95166,0.95235,-0.00532,-0.00055,-0.00167,0.00560,0.95235,0.00376,0.00632,3,12141,0,7163,0.00000,0.00000,0.00000,0,0,nan,0,0,0,4298,187491,0,0,0.000,0.000,0.000,0,0.000,0.000,0.000,0,0,4,0,0
PPG,3,109273,4372471552,25,533,542,0.000,0.000,0.000,0,0,0,0,0.00,nan,4,3,1,nan,3,3,24,1,1,25,25,0,0,0,78857829,0.03564,0.00513,0.95605,0.95673,-0.00532,-0.00135,-0.00141,0.00566,0.95673,0.00442,0.00651,3,12112,0,7163,0.00000,0.00000,0.00000,0,0,nan,0,0,0,2596,187491,0,0,0.000,0.000,0.000,0,0.000,0.000,0.000,0,0,4,0,0
PPG,3,109274,4372511552,25,521,513,0.000,0.000,0.000,0,0,0,0,0.00,nan,4,3,1,nan,3,3,24,1,1,26,26,0,0,0,78898947,0.04028,0.00146,0.95532,0.95617,-0.00612,-0.00055,-0.00141,0.00630,0.95617,0.00963,0.00743,3,12124,0,7163,0.00000,0.00000,0.00000,0,0,nan,0,0,0,4295,187491,0,0,0.000,0.000,0.000,0,0.000,0.000,0.000,0,0,4,0,0
PPG,3,109275,4372551552,25,516,519,0.000,0.000,0.000,0,0,0,0,0.00,nan,4,3,1,nan,3,3,24,1,1,27,27,0,0,0,78937472,0.03931,0.00708,0.95166,0.95250,-0.00638,-0.00081,-0.00061,0.00646,0.95385,0.00271,0.00708,3,12143,0,7163,0.00000,0.00000,0.00000,0,0,nan,0,0,0,2594,187491,0,0,0.000,0.000,0.000,0,0.000,0.000,0.000,0,0,4,0,0
PPG,3,109276,4372591552,25,516,517,0.000,0.000,0.000,0,0,0,0,0.00,nan,4,3,1,nan,3,3,24,1,1,28,28,0,0,0,78978627,0.03638,0.00781,0.94897,0.94970,-0.00665,-0.00001,-0.00114,0.00675,0.95926,0.00956,0.00675,3,12129,0,7163,0.00000,0.00000,0.00000,0,0,nan,0,0,0,2595,187491,0,0,0.000,0.000,0.000,0,0.000,0.000,0.000,0,0,4,0,0
PPG,3,109277,4372631552,25,526,526,0.000,0.000,0.000,0,0,0,0,0.00,nan,4,3,1,nan,3,3,24,1,1,29,29,0,0,0,79019763,0.03613,0.00659,0.94702,0.94773,-0.00532,-0.00108,-0.00114,0.00554,0.95850,0.00880,0.00663,3,12123,0,7163,0.00000,0.00000,0.00000,0,0,nan,0,0,0,4302,187491,0,0,0.000,0.000,0.000,0,0.000,0.000,0.000,0,0,4,0,0
PPG,3,109278,4372671552,26,541,532,0.000,0.000,0.000,0,0,0,0,0.00,nan,4,3,1,nan,3,3,24,1,1,30,30,0,0,0,79058315,0.03809,0.00708,0.95654,0.95733,-0.00612,-0.00055,-0.00167,0.00637,0.95733,0.00929,0.00686,3,12118,0,7163,0.00000,0.00000,0.00000,0,0,nan,0,0,0,2604,187491,0,0,0.000,0.000,0.000,0,0.000,0.000,0.000,0,0,4,0,0
PPG,3,109279,4372711552,25,532,539,0.000,0.000,0.000,0,0,0,0,0.00,nan,4,3,1,nan,3,3,24,1,1,31,31,0,0,0,79099428,0.04150,0.00513,0.94995,0.95087,-0.00585,-0.00081,-0.00141,0.00607,0.95344,0.00873,0.00686,3,12114,0,7163,0.00000,0.00000,0.00000,0,0,nan,0,0,0,4299,187491,0,0,0.000,0.000,0.000,0,0.000,0.000,0.000,0,0,4,0,0
PPG,3,109280,4372751552,25,527,537,0.000,0.000,0.000,0,0,0,0,0.00,nan,4,3,1,nan,3,3,24,1,1,0,0,0,0,0,79137962,0.03735,0.00562,0.95215,0.95290,-0.00479,-0.00055,-0.00221,0.00530,0.95768,0.01089,0.00697,3,12137,0,7163,0.00000,0.00000,0.00000,0,0,nan,0,0,0,2599,187491,0,0,0.000,0.000,0.000,0,0.000,0.000,0.000,0,0,4,0,0
PPG,3,109281,4372791552,25,520,523,0.000,0.000,0.000,0,0,0,0,0.00,nan,4,3,1,nan,3,3,24,1,1,1,1,0,0,0,79179183,0.03906,0.00562,0.95068,0.95150,-0.00638,-0.00055,-0.00194,0.00669,0.95235,0.00481,0.00684,3,12134,0,7163,0.00000,0.00000,0.00000,0,0,nan,0,0,0,4294,187491,0,0,0.000,0.000,0.000,0,0.000,0.000,0.000,0,0,4,0,0
PPG,3,109282,4372831552,25,535,536,0.000,0.000,0.000,0,0,0,0,0.00,nan,4,3,1,nan,3,3,24,1,1,2,2,0,0,0,79217688,0.03857,0.00195,0.95239,0.95318,-0.00558,0.00079,-0.00141,0.00581,0.95318,0.00454,0.00676,3,12113,0,7163,0.00000,0.00000,0.00000,0,0,nan,0,0,0,2599,187491,0,0,0.000,0.000,0.000,0,0.000,0.000,0.000,0,0,4,0,0
PPG,3,109283,4372871552,25,540,532,0.000,0.000,0.000,0,0,0,0,0.00,nan,4,3,1,nan,3,3,24,1,1,3,3,0,0,0,79258865,0.03906,0.01001,0.94873,0.94959,-0.00585,-0.00081,-0.00274,0.00651,0.94959,0.00726,0.00665,3,12120,0,7163,0.00000,0.00000,0.00000,0,0,nan,0,0,0,4299,187491,0,0,0.000,0.000,0.000,0,0.000,0.000,0.000,0,0,4,0,0
PPG,3,109284,4372911552,25,537,538,0.000,0.000,0.000,0,0,0,0,0.00,nan,4,3,1,nan,3,3,24,1,1,4,4,0,0,0,79297379,0.03320,0.00439,0.94824,0.94883,-0.00585,-0.00028,0.00019,0.00586,0.95263,0.00599,0.00588,3,12119,0,7163,0.00000,0.00000,0.00000,0,0,nan,0,0,0,2605,187491,0,0,0.000,0.000,0.000,0,0.000,0.000,0.000,0,0,4,0,0
PPG,3,109285,4372951552,26,529,533,0.000,0.000,0.000,0,0,0,0,0.00,nan,4,3,1,nan,3,3,24,1,1,5,5,0,0,0,79338486,0.03687,0.01294,0.95435,0.95515,-0.00558,0.00052,-0.00167,0.00585,0.95515,0.00336,0.00594,3,12117,0,7163,0.00000,0.00000,0.00000,0,0,nan,0,0,0,2615,187491,0,0,0.000,0.000,0.000,0,0.000,0.000,0.000,0,0,4,0,0
PPG,3,109286,4372991552,25,514,523,0.000,0.000,0.000,0,0,0,0,0.00,nan,4,3,1,nan,3,3,24,1,1,6,6,0,0,0,79376805,0.03638,0.01294,0.95313,0.95391,-0.00558,-0.00055,-0.00141,0.00578,0.95603,0.00213,0.00578,2,21466,0,7164,0.00000,0.00000,0.00000,0,0,nan,0,0,0,2595,187491,0,0,0.000,0.000,0.000,0,0.000,0.000,0.000,0,0,4,0,0
PPG,3,109287,4373031552,25,523,521,0.000,0.000,0.000,0,0,0,0,0.00,nan,4,3,1,nan,3,3,24,1,1,7,7,0,0,0,79418017,0.04175,0.00684,0.95068,0.95162,-0.00532,-0.00055,-0.00141,0.00553,0.95162,0.00610,0.00585,3,12113,0,7164,0.00000,0.00000,0.00000,0,0,nan,0,0,0,2600,187491,0,0,0.000,0.000,0.000,0,0.000,0.000,0.000,0,0,4,0,0
PPG,3,109288,4373071552,25,511,515,0.000,0.000,0.000,0,0,0,0,0.00,nan,4,3,1,nan,3,3,24,1,1,8,8,0,0,0,79459371,0.04126,0.00977,0.95313,0.95407,-0.00479,-0.00001,-0.00034,0.00480,0.95407,0.00588,0.00603,3,12292,0,7164,0.00000,0.00000,0.00000,0,0,nan,0,0,0,4338,187491,0,0,0.000,0.000,0.000,0,0.000,0.000,0.000,0,0,4,0,0
PPG,3,109289,4373111552,39,546,534,0.000,0.000,0.000,0,0,0,0,0.00,nan,4,3,1,nan,3,3,24,1,1,9,9,0,0,0,79498081,0.03882,0.00513,0.95337,0.95417,-0.00612,-0.00081,-0.00114,0.00628,0.95653,0.00819,0.00628,3,12111,0,7164,0.00000,0.00000,0.00000,0,0,nan,0,0,0,2595,187491,0,0,0.000,0.000,0.000,0,0.000,0.000,0.000,0,0,4,0,0
PPG,3,109290,4373151552,25,531,518,0.000,0.000,0.000,0,0,0,0,0.00,nan,4,3,1,nan,3,3,24,1,1,10,10,0,0,0,79539301,0.03735,0.00635,0.95020,0.95095,-0.00558,-0.00108,-0.00167,0.00593,0.95095,0.00396,0.00609,3,12116,0,7164,0.00000,0.00000,0.00000,0,0,nan,0,0,0,4298,187491,0,0,0.000,0.000,0.000,0,0.000,0.000,0.000,0,0,4,0,0
PPG,3,109291,4373191552,25,536,524,0.000,0.000,0.000,0,0,0,0,0.00,nan,4,3,1,nan,3,3,24,1,1,11,11,0,0,0,79577946,0.04199,0.00830,0.95093,0.95189,-0.00558,-0.00081,-0.00114,0.00576,0.95442,0.00253,0.00588,3,12169,0,7164,0.00000,0.00000,0.00000,0,0,nan,0,0,0,2601,187491,0,0,0.000,0.000,0.000,0,0.000,0.000,0.000,0,0,4,0,0
PPG,3,109292,4373231552,25,532,533,0.000,0.000,0.000,0,0,0,0,0.00,nan,4,3,1,nan,3,3,24,1,1,12,12,0,0,0,79619301,0.04150,0.00439,0.94653,0.94745,-0.00638,-0.00028,-0.00114,0.00649,0.95196,0.00333,0.00649,3,12290,0,7164,0.00000,0.00000,0.00000,0,0,nan,0,0,0,4298,187491,0,0,0.000,0.000,0.000,0,0.000,0.000,0.000,0,0,4,0,0
PPG,3,109293,4373271552,29,532,538,0.000,0.000,0.000,0,0,0,0,0.00,nan,4,3,1,nan,3,3,24,1,1,13,13,0,0,0,79658146,0.03784,0.00659,0.94531,0.94609,-0.00612,-0.00135,-0.00061,0.00629,0.95294,0.00685,0.00629,3,12437,0,7164,0.00000,0.00000,0.00000,0,0,nan,0,0,0,2618,187491,0,0,0.000,0.000,0.000,0,0.000,0.000,0.000,0,0,4,0,0
PPG,3,109294,4373311552,25,536,533,0.000,0.000,0.000,0,0,0,0,0.00,nan,4,3,1,nan,3,3,24,1,1,14,14,0,0,0,79699641,0.03809,0.00903,0.95264,0.95344,-0.00638,-0.00161,-0.00114,0.00668,0.95344,0.00680,0.00699,3,12269,0,7164,0.00000,0.00000,0.00000,0,0,nan,0,0,0,4361,187491,0,0,0.000,0.000,0.000,0,0.000,0.000,0.000,0,0,4,0,0
PPG,3,109295,4373351552,26,531,527,0.000,0.000,0.000,0,0,0,0,0.00,nan,4,3,1,nan,3,3,24,1,1,15,15,0,0,0,79738542,0.03662,0.00757,0.95190,0.95264,-0.00585,-0.00188,-0.00114,0.00625,0.95611,0.00618,0.00625,3,12242,0,7164,0.00000,0.00000,0.00000,0,0,nan,0,0,0,2611,187491,0,0,0.000,0.000,0.000,0,0.000,0.000,0.000,0,0,4,0,0
PPG,3,109296,4373391552,33,525,534,0.000,0.000,0.000,0,0,0,0,0.00,nan,4,3,1,nan,3,3,24,1,1,16,16,0,0,0,79780076,0.03979,0.00684,0.95557,0.95642,-0.00585,-0.00135,-0.00114,0.00611,0.95642,0.00737,0.00741,3,12250,0,7164,0.00000,0.00000,0.00000,0,0,nan,0,0,0,4340,187491,0,0,0.000,0.000,0.000,0,0.000,0.000,0.000,0,0,4,0,0
PPG,3,109297,4373431552,25,539,534,0.000,0.000,0.000,0,0,0,0,0.00,nan,4,3,1,nan,3,3,24,1,1,17,17,0,0,0,79819015,0.04199,0.00586,0.95557,0.95651,-0.00612,-0.00108,-0.00167,0.00643,0.95651,0.00847,0.00643,3,12277,0,7164,0.00000,0.00000,0.00000,0,0,nan,0,0,0,4338,187491,0,0,0.000,0.000,0.000,0,0.000,0.000,0.000,0,0,4,0,0
PPG,3,109298,4373471552,25,539,543,0.000,0.000,0.000,0,0,0,0,0.00,nan,4,3,1,nan,3,3,24,1,1,18,18,0,0,0,79857857,0.03613,0.00073,0.95435,0.95503,-0.00479,-0.00028,-0.00141,0.00500,0.95503,0.00256,0.00689,3,12269,0,7164,0.00000,0.00000,0.00000,0,0,nan,0,0,0,2654,187491,0,0,0.000,0.000,0.000,0,0.000,0.000,0.000,0,0,4,0,0
PPG,3,109299,4373511552,25,522,535,0.000,0.000,0.000,0,0,0,0,0.00,nan,4,3,1,nan,3,3,24,1,1,19,19,0,0,0,79899407,0.04102,0.00732,0.94971,0.95062,-0.00638,-0.00108,-0.00167,0.00669,0.95313,0.00381,0.00669,3,12244,0,7164,0.00000,0.00000,0.00000,0,0,nan,0,0,0,4313,187491,0,0,0.000,0.000,0.000,0,0.000,0.000,0.000,0,0,4,0,0
PPG,3,109300,4373551552,25,523,534,0.000,0.000,0.000,0,0,0,0,0.00,nan,4,3,1,nan,3,3,24,1,1,20,20,0,0,0,79938288,0.03784,0.00928,0.95190,0.95270,-0.00505,-0.00055,-0.00141,0.00527,0.95588,0.00318,0.00771,3,12284,0,7164,0.00000,0.00000,0.00000,0,0,nan,0,0,0,2637,187491,0,0,0.000,0.000,0.000,0,0.000,0.000,0.000,0,0,4,0,0
PPG,3,109301,4373591552,25,533,522,0.000,0.000,0.000,0,0,0,0,0.00,nan,4,3,1,nan,3,3,24,1,1,21,21,0,0,0,79979882,0.03760,0.00854,0.94702,0.94781,-0.00692,-0.00028,-0.00167,0.00712,0.95457,0.00725,0.00726,3,12259,0,7164,0.00000,0.00000,0.00000,0,0,nan,0,0,0,4330,187491,0,0,0.000,0.000,0.000,0,0.000,0.000,0.000,0,0,4,0,0
PPG,3,109302,4373631552,25,531,520,0.000,0.000,0.000,0,0,0,0,0.00,nan,4,3,1,nan,3,3,24,1,1,22,22,0,0,0,80018662,0.04028,0.00659,0.94922,0.95010,-0.00532,0.00025,-0.00087,0.00540,0.95310,0.00598,0.00602,3,12229,0,7164,0.00000,0.00000,0.00000,0,0,nan,0,0,0,2629,187491,0,0,0.000,0.000,0.000,0,0.000,0.000,0.000,0,0,4,0,0
PPG,3,109303,4373671552,25,537,533,0.000,0.000,0.000,0,0,0,0,0.00,nan,4,3,1,nan,3,3,24,1,1,23,23,0,0,0,80060130,0.04053,0.00366,0.95435,0.95521,-0.00532,0.00025,-0.00247,0.00587,0.95521,0.00481,0.00587,3,12231,0,7164,0.00000,0.00000,0.00000,0,0,nan,0,0,0,4338,187491,0,0,0.000,0.000,0.000,0,0.000,0.000,0.000,0,0,4,0,0
PPG,3,109304,4373711552,25,534,529,0.000,0.000,0.000,0,0,0,0,0.00,nan,4,3,1,nan,3,3,24,1,1,24,24,0,0,0,80099002,0.03882,0.00537,0.95166,0.95247,-0.00558,-0.00001,-0.00327,0.00647,0.95693,0.00625,0.00660,3,12240,0,7164,0.00000,0.00000,0.00000,0,0,nan,0,0,0,2635,187491,0,0,0.000,0.000,0.000,0,0.000,0.000,0.000,0,0,4,0,0
PPG,3,109305,4373751552,25,534,535,0.000,0.000,0.000,0,0,0,0,0.00,nan,4,3,1,nan,3,3,24,1,1,25,25,0,0,0,80140475,0.03687,0.00293,0.95361,0.95433,-0.00558,-0.00081,-0.00221,0.00606,0.95519,0.00236,0.00648,3,12239,0,7164,0.00000,0.00000,0.00000,0,0,nan,0,0,0,4337,187491,0,0,0.000,0.000,0.000,0,0.000,0.000,0.000,0,0,4,0,0
PPG,3,109306,4373791552,25,529,522,0.000,0.000,0.000,0,0,0,0,0.00,nan,4,3,1,nan,3,3,24,1,1,26,26,0,0,0,80179366,0.03857,0.00659,0.94775,0.94856,-0.00532,-0.00135,-0.00194,0.00582,0.95241,0.00218,0.00710,3,12246,0,7164,0.00000,0.00000,0.00000,0,0,nan,0,0,0,4330,187491,0,0,0.000,0.000,0.000,0,0.000,0.000,0.000,0,0,4,0,0
PPG,3,109307,4373831552,26,532,533,0.000,0.000,0.000,0,0,0,0,0.00,nan,4,3,1,nan,3,3,24,1,1,27,27,0,0,0,80218228,0.04248,0.00488,0.95435,0.95530,-0.00532,-0.00108,-0.00221,0.00586,0.95530,0.00816,0.00642,3,12238,0,7164,0.00000,0.00000,0.00000,0,0,nan,0,0,0,2626,187491,0,0,0.000,0.000,0.000,0,0.000,0.000,0.000,0,0,4,0,0
PPG,3,109308,4373871552,29,532,527,0.000,0.000,0.000,0,0,0,0,0.00,nan,4,3,1,nan,3,3,24,1,1,28,28,0,0,0,80296330,0.03662,0.01025,0.95410,0.95486,-0.00505,-0.00055,-0.00221,0.00554,0.95486,0.00246,0.00611,2,61162,0,7169,0.00000,0.00000,0.00000,0,0,nan,0,0,0,61182,187491,0,0,0.000,0.000,0.000,0,0.000,0.000,0.000,0,0,4,0,0
PPG,3,109309,4373911552,23,535,531,0.000,0.000,0.000,0,0,0,0,0.00,nan,4,3,1,nan,3,3,24,1,1,29,29,0,0,0,80308132,0.03589,0.00195,0.94678,0.94746,-0.00532,-0.00135,-0.00274,0.00613,0.94746,0.00740,0.00613,1,11802,0,7169,0.00000,0.00000,0.00000,0,0,nan,0,0,0,11750,187491,0,0,0.000,0.000,0.000,0,0.000,0.000,0.000,0,0,4,0,0
PPG,3,109310,4373951552,25,523,528,0.000,0.000,0.000,0,0,0,0,0.00,nan,4,3,1,nan,3,3,24,1,1,30,30,0,0,0,80334564,0.03638,0.00635,0.95093,0.95164,-0.00612,-0.00028,-0.00167,0.00635,0.95164,0.00235,0.00635,2,12155,0,7169,0.00000,0.00000,0.00000,0,0,nan,0,0,0,2594,187491,0,0,0.000,0.000,0.000,0,0.000,0.000,0.000,0,0,4,0,0
PPG,3,109311,4373991552,32,528,540,0.000,0.000,0.000,0,0,0,0,0.00,nan,4,3,1,nan,3,3,24,1,1,31,31,0,0,0,80378238,0.03687,0.00488,0.94873,0.94946,-0.00452,0.00079,-0.00194,0.00498,0.95213,0.00267,0.00507,2,24233,0,7170,0.00000,0.00000,0.00000,0,0,nan,0,0,0,2597,187491,0,0,0.000,0.000,0.000,0,0.000,0.000,0.000,0,0,4,0,0
PPG,3,109312,4374031552,25,525,523,0.000,0.000,0.000,0,0,0,0,0.00,nan,4,3,1,nan,3,3,24,1,1,0,0,0,0,0,80419486,0.03809,0.00342,0.94702,0.94779,-0.00745,-0.00108,-0.00114,0.00761,0.95495,0.00716,0.00761,3,12117,0,7170,0.00000,0.00000,0.00000,0,0,nan,0,0,0,4306,187491,0,0,0.000,0.000,0.000,0,0.000,0.000,0.000,0,0,4,0,0
PPG,3,109313,4374071552,25,530,545,0.000,0.000,0.000,0,0,0,0,0.00,nan,4,3,1,nan,3,3,24,1,1,1,1,0,0,0,80458010,0.03223,-0.00024,0.96045,0.96099,-0.00612,-0.00081,-0.00114,0.00628,0.96099,0.01082,0.00628,3,12123,0,7170,0.00000,0.00000,0.00000,0,0,nan,0,0,0,2602,187491,0,0,0.000,0.000,0.000,0,0.000,0.000,0.000,0,0,4,0,0
PPG,3,109314,4374111552,25,535,530,0.000,0.000,0.000,0,0,0,0,0.00,nan,4,3,1,nan,3,3,24,1,1,2,2,0,0,0,80499213,0.04175,0.00464,0.95703,0.95795,-0.00558,-0.00081,-0.00247,0.00616,0.96061,0.00666,0.00616,3,12119,0,7170,0.00000,0.00000,0.00000,0,0,nan,0,0,0,4298,187491,0,0,0.000,0.000,0.000,0,0.000,0.000,0.000,0,0,4,0,0
PPG,3,109315,4374151552,25,549,539,0.000,0.000,0.000,0,0,0,0,0.00,nan,4,3,1,nan,3,3,24,1,1,3,3,0,0,0,80537706,0.03882,0.00513,0.95215,0.95295,-0.00665,0.00052,-0.00167,0.00688,0.95295,0.00654,0.00728,3,12110,0,7170,0.00000,0.00000,0.00000,0,0,nan,0,0,0,2594,187491,0,0,0.000,0.000,0.000,0,0.000,0.000,0.000,0,0,4,0,0
PPG,3,109316,4374191552,26,533,541,0.000,0.000,0.000,0,0,0,0,0.00,nan,4,3,1,nan,3,3,24,1,1,4,4,0,0,0,80578866,0.03687,0.00757,0.95215,0.95289,-0.00558,-0.00161,-0.00167,0.00605,0.95289,0.00149,0.00605,3,12169,0,7170,0.00000,0.00000,0.00000,0,0,nan,0,0,0,2605,187491,0,0,0.000,0.000,0.000,0,0.000,0.000,0.000,0,0,4,0,0
PPG,3,109317,4374231552,25,519,514,0.000,0.000,0.000,0,0,0,0,0.00,nan,4,3,1,nan,3,3,24,1,1,5,5,0,0,0,80619984,0.03613,0.00513,0.95142,0.95212,-0.00505,-0.00001,-0.00194,0.00541,0.96263,0.01399,0.00649,3,12121,0,7170,0.00000,0.00000,0.00000,0,0,nan,0,0,0,4304,187491,0,0,0.000,0.000,0.000,0,0.000,0.000,0.000,0,0,4,0,0
PPG,3,109318,4374271552,25,529,507,0.000,0.000,0.000,0,0,0,0,0.00,nan,4,3,1,nan,3,3,24,1,1,6,6,0,0,0,80658500,0.04004,0.00708,0.95142,0.95228,-0.00585,-0.00001,-0.00194,0.00616,0.95248,0.00235,0.00668,3,12121,0,7170,0.00000,0.00000,0.00000,0,0,nan,0,0,0,2595,187491,0,0,0.000,0.000,0.000,0,0.000,0.000,0.000,0,0,4,0,0
PPG,3,109319,4374311552,25,529,528,0.000,0.000,0.000,0,0,0,0,0.00,nan,4,3,1,nan,3,3,24,1,1,7,7,0,0,0,80699716,0.03833,0.00537,0.95288,0.95367,-0.00638,-0.00135,-0.00141,0.00667,0.95504,0.00362,0.00676,3,12113,0,7170,0.00000,0.00000,0.00000,0,0,nan,0,0,0,4295,187491,0,0,0.000,0.000,0.000,0,0.000,0.000,0.000,0,0,4,0,0
PPG,3,109320,4374351552,28,534,545,0.000,0.000,0.000,0,0,0,0,0.00,nan,4,3,1,nan,3,3,24,1,1,8,8,0,0,0,80738215,0.03931,0.00391,0.94702,0.94784,-0.00479,-0.00055,-0.00221,0.00530,0.95697,0.00913,0.00677,3,12111,0,7170,0.00000,0.00000,0.00000,0,0,nan,0,0,0,2599,187491,0,0,0.000,0.000,0.000,0,0.000,0.000,0.000,0,0,4,0,0
PPG,3,109321,4374391552,25,550,536,0.000,0.000,0.000,0,0,0,0,0.00,nan,4,3,1,nan,3,3,24,1,1,9,9,0,0,0,80779364,0.03833,0.01025,0.95410,0.95493,-0.00612,0.00025,-0.00061,0.00615,0.95493,0.00445,0.00615,3,12148,0,7170,0.00000,0.00000,0.00000,0,0,nan,0,0,0,4311,187491,0,0,0.000,0.000,0.000,0,0.000,0.000,0.000,0,0,4,0,0
PPG,3,109322,4374431552,26,531,533,0.000,0.000,0.000,0,0,0,0,0.00,nan,4,3,1,nan,3,3,24,1,1,10,10,0,0,0,80817944,0.04053,0.00366,0.95166,0.95253,-0.00479,-0.00161,-0.00141,0.00524,0.95385,0.00652,0.00695,3,12136,0,7170,0.00000,0.00000,0.00000,0,0,nan,0,0,0,2599,187491,0,0,0.000,0.000,0.000,0,0.000,0.000,0.000,0,0,4,0,0
PPG,3,109323,4374471552,25,526,517,0.000,0.000,0.000,0,0,0,0,0.00,nan,4,3,1,nan,3,3,24,1,1,11,11,0,0,0,80859090,0.03564,0.00513,0.95435,0.95502,-0.00558,-0.00081,-0.00141,0.00582,0.95502,0.00484,0.00582,3,12130,0,7170,0.00000,0.00000,0.00000,0,0,nan,0,0,0,2594,187491,0,0,0.000,0.000,0.000,0,0.000,0.000,0.000,0,0,4,0,0
PPG,3,109324,4374511552,25,529,526,0.000,0.000,0.000,0,0,0,0,0.00,nan,4,3,1,nan,3,3,24,1,1,12,12,0,0,0,80900302,0.04272,0.01074,0.94873,0.94975,-0.00772,-0.00135,-0.00087,0.00788,0.95408,0.00250,0.00788,3,12139,0,7170,0.00000,0.00000,0.00000,0,0,nan,0,0,0,4298,187491,0,0,0.000,0.000,0.000,0,0.000,0.000,0.000,0,0,4,0,0
PPG,3,109325,4374551552,25,540,538,0.000,0.000,0.000,0,0,0,0,0.00,nan,4,3,1,nan,3,3,24,1,1,13,13,0,0,0,80938828,0.04126,0.00854,0.95215,0.95308,-0.00638,0.00025,-0.00194,0.00668,0.95594,0.00356,0.00693,3,12131,0,7170,0.00000,0.00000,0.00000,0,0,nan,0,0,0,2596,187491,0,0,0.000,0.000,0.000,0,0.000,0.000,0.000,0,0,4,0,0
PPG,3,109326,4374591552,25,535,542,0.000,0.000,0.000,0,0,0,0,0.00,nan,4,3,1,nan,3,3,24,1,1,14,14,0,0,0,80979942,0.04150,0.00488,0.95044,0.95136,-0.00532,0.00025,-0.00114,0.00544,0.95136,0.00726,0.00583,3,12122,0,7170,0.00000,0.00000,0.00000,0,0,nan,0,0,0,4328,187491,0,0,0.000,0.000,0.000,0,0.000,0.000,0.000,0,0,4,0,0
PPG,3,109327,4374631552,25,531,536,0.000,0.000,0.000,0,0,0,0,0.00,nan,4,3,1,nan,3,3,24,1,1,15,15,0,0,0,81018491,0.04297,0.00610,0.94971,0.95070,-0.00612,-0.00028,-0.00141,0.00628,0.95127,0.00055,0.00686,3,12118,0,7170,0.00000,0.00000,0.00000,0,0,nan,0,0,0,2595,187491,0,0,0.000,0.000,0.000,0,0.000,0.000,0.000,0,0,4,0,0
PPG,3,109328,4374671552,25,527,523,0.000,0.000,0.000,0,0,0,0,0.00,nan,4,3,1,nan,3,3,24,1,1,16,16,0,0,0,81059609,0.03198,0.00854,0.95923,0.95980,-0.00638,-0.00081,-0.00141,0.00659,0.95980,0.01042,0.00659,3,12129,0,7170,0.00000,0.00000,0.00000,0,0,nan,0,0,0,4298,187491,0,0,0.000,0.000,0.000,0,0.000,0.000,0.000,0,0,4,0,0
PPG,3,109329,4374711552,28,532,511,0.000,0.000,0.000,0,0,0,0,0.00,nan,4,3,1,nan,3,3,24,1,1,17,17,0,0,0,81098182,0.03955,0.00854,0.94556,0.94642,-0.00585,0.00079,-0.00007,0.00590,0.95504,0.00599,0.00643,3,12151,0,7170,0.00000,0.00000,0.00000,0,0,nan,0,0,0,2598,187491,0,0,0.000,0.000,0.000,0,0.000,0.000,0.000,0,0,4,0,0
PPG,3,109330,4374751552,25,530,522,0.000,0.000,0.000,0,0,0,0,0.00,nan,4,3,1,nan,3,3,24,1,1,18,18,0,0,0,81139324,0.03589,0.00854,0.95557,0.95628,-0.00585,0.00052,-0.00167,0.00611,0.95669,0.01027,0.00660,3,12131,0,7170,0.00000,0.00000,0.00000,0,0,nan,0,0,0,2595,187491,0,0,0.000,0.000,0.000,0,0.000,0.000,0.000,0,0,4,0,0
PPG,3,109331,4374791552,25,534,534,0.000,0.000,0.000,0,0,0,0,0.00,nan,4,3,1,nan,3,3,24,1,1,19,19,0,0,0,81180427,0.03687,0.00269,0.94531,0.94603,-0.00612,-0.00055,-0.00087,0.00620,0.95004,0.00825,0.00620,3,12109,0,7170,0.00000,0.00000,0.00000,0,0,nan,0,0,0,4298,187491,0,0,0.000,0.000,0.000,0,0.000,0.000,0.000,0,0,4,0,0
PPG,3,109332,4374831552,25,549,536,0.000,0.000,0.000,0,0,0,0,0.00,nan,4,3,1,nan,3,3,24,1,1,20,20,0,0,0,81218982,0.03564,0.00708,0.95166,0.95235,-0.00558,-0.00081,-0.00114,0.00576,0.95235,0.00587,0.00667,3,12119,0,7170,0.00000,0.00000,0.00000,0,0,nan,0,0,0,2595,187491,0,0,0.000,0.000,0.000,0,0.000,0.000,0.000,0,0,4,0,0
PPG,3,109333,4374871552,26,534,538,0.000,0.000,0.000,0,0,0,0,0.00,nan,4,3,1,nan,3,3,24,1,1,21,21,0,0,0,81260104,0.03955,0.00806,0.95020,0.95105,-0.00558,-0.00108,-0.00167,0.00593,0.95181,0.00342,0.00656,3,12121,0,7170,0.00000,0.00000,0.00000,0,0,nan,0,0,0,4299,187491,0,0,0.000,0.000,0.000,0,0.000,0.000,0.000,0,0,4,0,0
PPG,3,109334,4374911552,25,515,516,0.000,0.000,0.000,0,0,0,0,0.00,nan,4,3,1,nan,3,3,24,1,1,22,22,0,0,0,81298732,0.03296,0.00439,0.94946,0.95004,-0.00558,-0.00055,-0.00167,0.00586,0.95673,0.00568,0.00592,3,12210,0,7170,0.00000,0.00000,0.00000,0,0,nan,0,0,0,2597,187491,0,0,0.000,0.000,0.000,0,0.000,0.000,0.000,0,0,4,0,0
PPG,3,109335,4374951552,26,528,522,0.000,0.000,0.000,0,0,0,0,0.00,nan,4,3,1,nan,3,3,24,1,1,23,23,0,0,0,81339842,0.04102,0.00415,0.95239,0.95328,-0.00665,-0.00055,-0.00194,0.00695,0.95612,0.00607,0.00695,3,12122,0,7170,0.00000,0.00000,0.00000,0,0,nan,0,0,0,4301,187491,0,0,0.000,0.000,0.000,0,0.000,0.000,0.000,0,0,4,0,0
PPG,3,109336,4374991552,31,540,542,0.000,0.000,0.000,0,0,0,0,0.00,nan,4,3,1,nan,3,3,24,1,1,24,24,0,0,0,81378126,0.04199,0.00562,0.95337,0.95431,-0.00558,-0.00081,-0.00167,0.00589,0.95431,0.00282,0.00682,2,24045,0,7171,0.00000,0.00000,0.00000,0,0,nan,0,0,0,2600,187491,0,0,0.000,0.000,0.000,0,0.000,0.000,0.000,0,0,4,0,0
PPG,3,109337,4375031552,25,525,530,0.000,0.000,0.000,0,0,0,0,0.00,nan,4,3,1,nan,3,3,24,1,1,25,25,0,0,0,81419375,0.03687,0.00513,0.95142,0.95214,-0.00505,0.00025,-0.00141,0.00525,0.95453,0.00817,0.00625,3,12116,0,7171,0.00000,0.00000,0.00000,0,0,nan,0,0,0,2605,187491,0,0,0.000,0.000,0.000,0,0.000,0.000,0.000,0,0,4,0,0
PPG,3,109338,4375071552,25,529,532,0.000,0.000,0.000,0,0,0,0,0.00,nan,4,3,1,nan,3,3,24,1,1,26,26,0,0,0,81460493,0.03833,0.00513,0.94849,0.94927,-0.00532,0.00052,-0.00114,0.00546,0.95683,0.00756,0.00567,3,12120,0,7171,0.00000,0.00000,0.00000,0,0,nan,0,0,0,4306,187491,0,0,0.000,0.000,0.000,0,0.000,0.000,0.000,0,0,4,0,0
PPG,3,109339,4375111552,26,547,536,0.000,0.000,0.000,0,0,0,0,0.00,nan,4,3,1,nan,3,3,24,1,1,27,27,0,0,0,81499073,0.03467,0.00659,0.95752,0.95817,-0.00505,-0.00028,-0.00114,0.00519,0.95817,0.00894,0.00616,3,12153,0,7171,0.00000,0.00000,0.00000,0,0,nan,0,0,0,2595,187491,0,0,0.000,0.000,0.000,0,0.000,0.000,0.000,0,0,4,0,0
PPG,3,109340,4375151552,25,530,538,0.000,0.000,0.000,0,0,0,0,0.00,nan,4,3,1,nan,3,3,24,1,1,28,28,0,0,0,81540191,0.04102,0.00903,0.94775,0.94868,-0.00558,-0.00001,-0.00114,0.00570,0.95308,0.00575,0.00587,3,12111,0,7171,0.00000,0.00000,0.00000,0,0,nan,0,0,0,4294,187491,0,0,0.000,0.000,0.000,0,0.000,0.000,0.000,0,0,4,0,0
PPG,3,109341,4375191552,25,521,523,0.000,0.000,0.000,0,0,0,0,0.00,nan,4,3,1,nan,3,3,24,1,1,29,29,0,0,0,81578715,0.03760,0.00903,0.95752,0.95830,-0.00532,-0.00135,-0.00167,0.00574,0.95830,0.01265,0.00602,3,12124,0,7171,0.00000,0.00000,0.00000,0,0,nan,0,0,0,2595,187491,0,0,0.000,0.000,0.000,0,0.000,0.000,0.000,0,0,4,0,0
PPG,3,109342,4375231552,25,527,519,0.000,0.000,0.000,0,0,0,0,0.00,nan,4,3,1,nan,3,3,24,1,1,30,30,0,0,0,81619930,0.03418,0.00781,0.95239,0.95304,-0.00585,-0.00188,-0.00141,0.00630,0.95416,0.00766,0.00686,3,12129,0,7171,0.00000,0.00000,0.00000,0,0,nan,0,0,0,4297,187491,0,0,0.000,0.000,0.000,0,0.000,0.000,0.000,0,0,4,0,0
PPG,3,109343,4375271552,25,545,530,0.000,0.000,0.000,0,0,0,0,0.00,nan,4,3,1,nan,3,3,24,1,1,31,31,0,0,0,81658447,0.03906,0.00439,0.95532,0.95613,-0.00558,-0.00135,-0.00114,0.00586,0.95971,0.00777,0.00586,3,12118,0,7171,0.00000,0.00000,0.00000,0,0,nan,0,0,0,2604,187491,0,0,0.000,0.000,0.000,0,0.000,0.000,0.000,0,0,4,0,0
PPG,3,109344,4375311552,25,540,535,0.000,0.000,0.000,0,0,0,0,0.00,nan,4,3,1,nan,3,3,24,1,1,0,0,0,0,0,81699571,0.03760,0.00610,0.94946,0.95023,-0.00612,-0.00055,-0.00167,0.00637,0.95755,0.00732,0.00703,3,12146,0,7171,0.00000,0.00000,0.00000,0,0,nan,0,0,0,4305,187491,0,0,0.000,0.000,0.000,0,0.000,0.000,0.000,0,0,4,0,0
PPG,3,109345,4375351552,32,536,546,0.000,0.000,0.000,0,0,0,0,0.00,nan,4,3,1,nan,3,3,24,1,1,1,1,0,0,0,81738111,0.03613,0.00464,0.95313,0.95382,-0.00638,-0.00081,-0.00034,0.00644,0.95382,0.00337,0.00644,3,12130,0,7171,0.00000,0.00000,0.00000,0,0,nan,0,0,0,2595,187491,0,0,0.000,0.000,0.000,0,0.000,0.000,0.000,0,0,4,0,0
PPG,3,109346,4375391552,26,519,527,0.000,0.000,0.000,0,0,0,0,0.00,nan,4,3,1,nan,3,3,24,1,1,2,2,0,0,0,81779255,0.03613,0.00830,0.94629,0.94701,-0.00532,-0.00028,-0.00141,0.00551,0.95406,0.00598,0.00620,3,12120,0,7171,0.00000,0.00000,0.00000,0,0,nan,0,0,0,2604,187491,0,0,0.000,0.000,0.000,0,0.000,0.000,0.000,0,0,4,0,0
PPG,3,109347,4375431552,25,520,523,0.000,0.000,0.000,0,0,0,0,0.00,nan,4,3,1,nan,3,3,24,1,1,3,3,0,0,0,81820441,0.03735,0.00708,0.95068,0.95144,-0.00692,-0.00161,-0.00141,0.00724,0.96061,0.00917,0.00724,3,12141,0,7171,0.00000,0.00000,0.00000,0,0,nan,0,0,0,4295,187491,0,0,0.000,0.000,0.000,0,0.000,0.000,0.000,0,0,4,0,0
PPG,3,109348,4375471552,25,540,531,0.000,0.000,0.000,0,0,0,0,0.00,nan,4,3,1,nan,3,3,24,1,1,4,4,0,0,0,81858968,0.04126,0.00391,0.95093,0.95183,-0.00558,-0.00161,-0.00167,0.00605,0.95183,0.00302,0.00640,3,12125,0,7171,0.00000,0.00000,0.00000,0,0,nan,0,0,0,2597,187491,0,0,0.000,0.000,0.000,0,0.000,0.000,0.000,0,0,4,0,0
PPG,3,109349,4375511552,25,541,542,0.000,0.000,0.000,0,0,0,0,0.00,nan,4,3,1,nan,3,3,24,1,1,5,5,0,0,0,81900076,0.03857,0.01025,0.94336,0.94420,-0.00718,-0.00001,-0.00167,0.00738,0.95194,0.00465,0.00738,3,12121,0,7171,0.00000,0.00000,0.00000,0,0,nan,0,0,0,4321,187491,0,0,0.000,0.000,0.000,0,0.000,0.000,0.000,0,0,4,0,0
PPG,3,109350,4375551552,25,537,544,0.000,0.000,0.000,0,0,0,0,0.00,nan,4,3,1,nan,3,3,24,1,1,6,6,0,0,0,81939048,0.03857,0.00317,0.94849,0.94928,-0.00638,0.00025,-0.00061,0.00642,0.95465,0.01045,0.00642,3,12253,0,7171,0.00000,0.00000,0.00000,0,0,nan,0,0,0,2599,187491,0,0,0.000,0.000,0.000,0,0.000,0.000,0.000,0,0,4,0,0
PPG,3,109351,4375591552,25,542,539,0.000,0.000,0.000,0,0,0,0,0.00,nan,4,3,1,nan,3,3,24,1,1,7,7,0,0,0,81980213,0.04297,0.00220,0.95337,0.95434,-0.00638,0.00158,-0.00114,0.00668,0.95681,0.00753,0.00737,3,12109,0,7171,0.00000,0.00000,0.00000,0,0,nan,0,0,0,4298,187491,0,0,0.000,0.000,0.000,0,0.000,0.000,0.000,0,0,4,0,0
PPG,3,109352,4375631552,25,534,544,0.000,0.000,0.000,0,0,0,0,0.00,nan,4,3,1,nan,3,3,24,1,1,8,8,0,0,0,82018788,0.03613,0.00391,0.95166,0.95235,-0.00479,0.00238,-0.00194,0.00569,0.95506,0.00374,0.00569,3,12181,0,7171,0.00000,0.00000,0.00000,0,0,nan,0,0,0,2598,187491,0,0,0.000,0.000,0.000,0,0.000,0.000,0.000,0,0,4,0,0
PPG,3,109353,4375671552,39,525,521,0.000,0.000,0.000,0,0,0,0,0.00,nan,4,3,1,nan,3,3,24,1,1,9,9,0,0,0,82060036,0.03809,0.00317,0.95459,0.95535,-0.00585,0.00505,-0.00114,0.00781,0.95732,0.00496,0.00781,3,12125,0,7171,0.00000,0.00000,0.00000,0,0,nan,0,0,0,4307,187491,0,0,0.000,0.000,0.000,0,0.000,0.000,0.000,0,0,4,0,0
PPG,3,109354,4375711552,30,540,532,0.000,0.000,0.000,0,0,0,0,0.00,nan,4,3,1,nan,3,3,24,1,1,10,10,0,0,0,82098732,0.03638,0.00513,0.95142,0.95212,-0.00479,0.00345,-0.00167,0.00613,0.95212,0.00429,0.00838,3,12149,0,7171,0.00000,0.00000,0.00000,0,0,nan,0,0,0,2690,187491,0,0,0.000,0.000,0.000,0,0.000,0.000,0.000,0,0,4,0,0
PPG,3,109355,4375751552,26,534,540,0.000,0.000,0.000,0,0,0,0,0.00,nan,4,3,1,nan,3,3,24,1,1,11,11,0,0,0,82140413,0.04004,0.00513,0.95557,0.95642,-0.00558,0.00158,-0.00167,0.00604,0.95642,0.00971,0.00645,3,12258,0,7171,0.00000,0.00000,0.00000,0,0,nan,0,0,0,4330,187491,0,0,0.000,0.000,0.000,0,0.000,0.000,0.000,0,0,4,0,0
PPG,3,109356,4375791552,25,529,532,0.000,0.000,0.000,0,0,0,0,0.00,nan,4,3,1,nan,3,3,24,1,1,12,12,0,0,0,82179335,0.03638,0.00415,0.95703,0.95773,-0.00558,0.00025,-0.00247,0.00611,0.96116,0.02001,0.00730,3,12238,0,7171,0.00000,0.00000,0.00000,0,0,nan,0,0,0,2643,187491,0,0,0.000,0.000,0.000,0,0.000,0.000,0.000,0,0,4,0,0
PPG,3,109357,4375831552,26,531,534,0.000,0.000,0.000,0,0,0,0,0.00,nan,4,3,1,nan,3,3,24,1,1,13,13,0,0,0,82220880,0.03564,0.00684,0.95557,0.95626,-0.00532,0.00185,-0.00221,0.00605,0.95750,0.00734,0.00638,3,12291,0,7171,0.00000,0.00000,0.00000,0,0,nan,0,0,0,4342,187491,0,0,0.000,0.000,0.000,0,0.000,0.000,0.000,0,0,4,0,0
PPG,3,109358,4375871552,27,540,525,0.000,0.000,0.000,0,0,0,0,0.00,nan,4,3,1,nan,3,3,24,1,1,14,14,0,0,0,82259786,0.03931,0.00952,0.95239,0.95325,-0.00585,-0.00081,-0.00141,0.00607,0.95325,0.01118,0.00607,3,12268,0,7171,0.00000,0.00000,0.00000,0,0,nan,0,0,0,4337,187491,0,0,0.000,0.000,0.000,0,0.000,0.000,0.000,0,0,4,0,0
PPG,3,109359,4375911552,25,530,529,0.000,0.000,0.000,0,0,0,0,0.00,nan,4,3,1,nan,3,3,24,1,1,15,15,0,0,0,82298626,0.04028,0.01099,0.95410,0.95501,-0.00665,-0.00001,-0.00194,0.00693,0.95501,0.00674,0.00693,3,12247,0,7171,0.00000,0.00000,0.00000,0,0,nan,0,0,0,2627,187491,0,0,0.000,0.000,0.000,0,0.000,0.000,0.000,0,0,4,0,0
PPG,3,109360,4375951552,26,544,536,0.000,0.000,0.000,0,0,0,0,0.00,nan,4,3,1,nan,3,3,24,1,1,16,16,0,0,0,82340174,0.03882,0.00293,0.95044,0.95124,-0.00452,0.00212,-0.00194,0.00535,0.95631,0.00756,0.00679,3,12247,0,7171,0.00000,0.00000,0.00000,0,0,nan,0,0,0,4331,187491,0,0,0.000,0.000,0.000,0,0.000,0.000,0.000,0,0,4,0,0
PPG,3,109361,4375991552,25,537,537,0.000,0.000,0.000,0,0,0,0,0.00,nan,4,3,1,nan,3,3,24,1,1,17,17,0,0,0,82378794,0.03662,0.00513,0.95337,0.95409,-0.00558,0.00105,-0.00114,0.00580,0.95409,0.00400,0.00661,2,24305,0,7172,0.00000,0.00000,0.00000,0,0,nan,0,0,0,2660,187491,0,0,0.000,0.000,0.000,0,0.000,0.000,0.000,0,0,4,0,0
PPG,3,109362,4376031552,30,521,517,0.000,0.000,0.000,0,0,0,0,0.00,nan,4,3,1,nan,3,3,24,1,1,18,18,0,0,0,82420476,0.03979,0.00635,0.94312,0.94398,-0.00585,0.00425,-0.00141,0.00737,0.95436,0.01038,0.00737,3,12277,0,7172,0.00000,0.00000,0.00000,0,0,nan,0,0,0,4377,187491,0,0,0.000,0.000,0.000,0,0.000,0.000,0.000,0,0,4,0,0
PPG,3,109363,4376071552,25,531,534,0.000,0.000,0.000,0,0,0,0,0.00,nan,4,3,1,nan,3,3,24,1,1,19,19,0,0,0,82459328,0.03564,0.00659,0.95020,0.95089,-0.00452,0.00318,-0.00194,0.00586,0.95089,0.00365,0.00641,3,12215,0,7172,0.00000,0.00000,0.00000,0,0,nan,0,0,0,2631,187491,0,0,0.000,0.000,0.000,0,0.000,0.000,0.000,0,0,4,0,0
PPG,3,109364,4376111552,34,532,531,0.000,0.000,0.000,0,0,0,0,0.00,nan,4,3,1,nan,3,3,24,1,1,20,20,0,0,0,82500782,0.03638,0.00366,0.95605,0.95675,-0.00452,0.00318,-0.00221,0.00595,0.95814,0.00726,0.00636,3,12235,0,7172,0.00000,0.00000,0.00000,0,0,nan,0,0,0,4333,187491,0,0,0.000,0.000,0.000,0,0.000,0.000,0.000,0,0,4,0,0
PPG,3,109365,4376151552,26,538,535,0.000,0.000,0.000,0,0,0,0,0.00,nan,4,3,1,nan,3,3,24,1,1,21,21,0,0,0,82539656,0.03613,0.00732,0.94873,0.94945,-0.00425,0.00558,-0.00167,0.00721,0.95960,0.00749,0.00721,3,12243,0,7172,0.00000,0.00000,0.00000,0,0,nan,0,0,0,2634,187491,0,0,0.000,0.000,0.000,0,0.000,0.000,0.000,0,0,4,0,0
PPG,3,109366,4376191552,26,526,531,0.000,0.000,0.000,0,0,0,0,0.00,nan,4,3,1,nan,3,3,24,1,1,22,22,0,0,0,82581095,0.03784,0.00635,0.94775,0.94853,-0.00558,0.00505,-0.00167,0.00771,0.95280,0.00891,0.00771,3,12209,0,7172,0.00000,0.00000,0.00000,0,0,nan,0,0,0,4327,187491,0,0,0.000,0.000,0.000,0,0.000,0.000,0.000,0,0,4,0,0
PPG,3,109367,4376231552,26,528,531,0.000,0.000,0.000,0,0,0,0,0.00,nan,4,3,1,nan,3,3,24,1,1,23,23,0,0,0,82619921,0.03638,0.00586,0.96753,0.96823,-0.00532,0.00212,-0.00167,0.00596,0.96823,0.05386,0.00787,3,12230,0,7172,0.00000,0.00000,0.00000,0,0,nan,0,0,0,4341,187491,0,0,0.000,0.000,0.000,0,0.000,0.000,0.000,0,0,4,0,0
PPG,3,109368,4376271552,26,528,534,0.000,0.000,0.000,0,0,0,0,0.00,nan,4,3,1,nan,3,3,24,1,1,24,24,0,0,0,82658774,0.03418,0.00781,0.94482,0.94547,-0.00479,0.00079,-0.00354,0.00600,0.95275,0.01548,0.00661,3,12254,0,7172,0.00000,0.00000,0.00000,0,0,nan,0,0,0,2619,187491,0,0,0.000,0.000,0.000,0,0.000,0.000,0.000,0,0,4,0,0
PPG,3,109369,4376311552,26,533,534,0.000,0.000,0.000,0,0,0,0,0.00,nan,4,3,1,nan,3,3,24,1,1,25,25,0,0,0,82700239,0.03784,0.00635,0.95093,0.95170,-0.00558,0.00025,-0.00141,0.00576,0.95903,0.01356,0.00706,3,12224,0,7172,0.00000,0.00000,0.00000,0,0,nan,0,0,0,4313,187491,0,0,0.000,0.000,0.000,0,0.000,0.000,0.000,0,0,4,0,0
PPG,3,109370,4376351552,25,542,531,0.000,0.000,0.000,0,0,0,0,0.00,nan,4,3,1,nan,3,3,24,1,1,26,26,0,0,0,82738962,0.04199,0.00781,0.95044,0.95140,-0.00505,-0.00055,-0.00167,0.00535,0.95140,0.00123,0.00675,3,12234,0,7172,0.00000,0.00000,0.00000,0,0,nan,0,0,0,2650,187491,0,0,0.000,0.000,0.000,0,0.000,0.000,0.000,0,0,4,0,0
PPG,3,109371,4376391552,26,548,540,0.000,0.000,0.000,0,0,0,0,0.00,nan,4,3,1,nan,3,3,24,1,1,27,27,0,0,0,82780216,0.03687,0.00806,0.94482,0.94558,-0.00665,-0.00028,-0.00247,0.00710,0.95581,0.01023,0.00710,3,12145,0,7172,0.00000,0.00000,0.00000,0,0,nan,0,0,0,4298,187491,0,0,0.000,0.000,0.000,0,0.000,0.000,0.000,0,0,4,0,0
PPG,3,109372,4376431552,25,558,544,0.000,0.000,0.000,0,0,0,0,0.00,nan,4,3,1,nan,3,3,24,1,1,28,28,0,0,0,82818728,0.03247,0.00244,0.95239,0.95295,-0.00585,-0.00001,-0.00194,0.00616,0.95295,0.00702,0.00648,3,12118,0,7172,0.00000,0.00000,0.00000,0,0,nan,0,0,0,2602,187491,0,0,0.000,0.000,0.000,0,0.000,0.000,0.000,0,0,4,0,0
PPG,3,109373,4376471552,25,573,569,0.000,0.000,0.000,0,0,0,0,0.00,nan,4,3,1,nan,3,3,24,1,1,29,29,0,0,0,82859919,0.03784,0.00464,0.94897,0.94974,-0.00585,0.00025,-0.00114,0.00597,0.94974,0.00357,0.00656,3,12144,0,7172,0.00000,0.00000,0.00000,0,0,nan,0,0,0,4300,187491,0,0,0.000,0.000,0.000,0,0.000,0.000,0.000,0,0,4,0,0
PPG,3,109374,4376511552,25,575,589,0.000,0.000,0.000,0,0,0,0,0.00,nan,4,3,1,nan,3,3,24,1,1,30,30,0,0,0,82898461,0.03271,0.00342,0.94458,0.94515,-0.00558,-0.00081,-0.00167,0.00589,0.95020,0.01007,0.00597,3,12123,0,7172,0.00000,0.00000,0.00000,0,0,nan,0,0,0,2605,187491,0,0,0.000,0.000,0.000,0,0.000,0.000,0.000,0,0,4,0,0
PPG,3,109375,4376551552,26,569,578,0.000,0.000,0.000,0,0,0,0,0.00,nan,4,3,1,nan,3,3,24,1,1,31,31,0,0,0,82939607,0.03662,0.00586,0.94385,0.94458,-0.00505,-0.00081,-0.00167,0.00538,0.95305,0.00790,0.00605,3,12156,0,7172,0.00000,0.00000,0.00000,0,0,nan,0,0,0,2597,187491,0,0,0.000,0.000,0.000,0,0.000,0.000,0.000,0,0,4,0,0
PPG,3,109376,4376591552,25,572,577,0.000,0.000,0.000,0,0,0,0,0.00,nan,4,3,1,nan,3,3,24,1,1,0,0,0,0,0,82980695,0.03442,0.00757,0.94873,0.94938,-0.00638,-0.00081,-0.00167,0.00665,0.94938,0.00388,0.00665,3,12108,0,7172,0.00000,0.00000,0.00000,0,0,nan,0,0,0,4297,187491,0,0,0.000,0.000,0.000,0,0.000,0.000,0.000,0,0,4,0,0
PPG,3,109377,4376631552,25,581,585,0.000,0.000,0.000,0,0,0,0,0.00,nan,4,3,1,nan,3,3,24,1,1,1,1,0,0,0,83019203,0.03760,0.00708,0.95313,0.95389,-0.00558,-0.00001,-0.00194,0.00591,0.96055,0.01116,0.00688,3,12114,0,7172,0.00000,0.00000,0.00000,0,0,nan,0,0,0,2599,187491,0,0,0.000,0.000,0.000,0,0.000,0.000,0.000,0,0,4,0,0
PPG,3,109378,4376671552,25,578,577,0.000,0.000,0.000,0,0,0,0,0.00,nan,4,3,1,nan,3,3,24,1,1,2,2,0,0,0,83060308,0.04736,0.00684,0.95361,0.95481,-0.00638,-0.00055,-0.00167,0.00662,0.95793,0.00517,0.00662,3,12121,0,7172,0.00000,0.00000,0.00000,0,0,nan,0,0,0,4297,187491,0,0,0.000,0.000,0.000,0,0.000,0.000,0.000,0,0,4,0,0
PPG,3,109379,4376711552,26,575,579,0.000,0.000,0.000,0,0,0,0,0.00,nan,4,3,1,nan,3,3,24,1,1,3,3,0,0,0,83098826,0.03711,0.00415,0.96948,0.97020,-0.00612,-0.00028,-0.00194,0.00642,0.97020,0.02445,0.00642,3,12120,0,7172,0.00000,0.00000,0.00000,0,0,nan,0,0,0,2605,187491,0,0,0.000,0.000,0.000,0,0.000,0.000,0.000,0,0,4,0,0
PPG,3,109380,4376751552,25,577,587,0.000,0.000,0.000,0,0,0,0,0.00,nan,4,3,1,nan,3,3,24,1,1,4,4,0,0,0,83140006,0.03149,0.00977,0.95337,0.95394,-0.00745,-0.00001,-0.00141,0.00758,0.95949,0.02247,0.00758,3,12178,0,7172,0.00000,0.00000,0.00000,0,0,nan,0,0,0,4307,187491,0,0,0.000,0.000,0.000,0,0.000,0.000,0.000,0,0,4,0,0
PPG,3,109381,4376791552,25,573,576,0.000,0.000,0.000,0,0,0,0,0.00,nan,4,3,1,nan,3,3,24,1,1,5,5,0,0,0,83178536,0.03760,0.00342,0.95605,0.95680,-0.00612,-0.00161,-0.00141,0.00648,0.95680,0.00730,0.00753,3,12118,0,7172,0.00000,0.00000,0.00000,0,0,nan,0,0,0,2601,187491,0,0,0.000,0.000,0.000,0,0.000,0.000,0.000,0,0,4,0,0
PPG,3,109382,4376831552,25,551,548,0.000,0.000,0.000,0,0,0,0,0.00,nan,4,3,1,nan,3,3,24,1,1,6,6,0,0,0,83219652,0.03125,0.00928,0.95435,0.95490,-0.00585,-0.00001,-0.00061,0.00588,0.95490,0.01006,0.00644,3,12114,0,7172,0.00000,0.00000,0.00000,0,0,nan,0,0,0,2597,187491,0,0,0.000,0.000,0.000,0,0.000,0.000,0.000,0,0,4,0,0
PPG,3,109383,4376871552,25,565,555,0.000,0.000,0.000,0,0,0,0,0.00,nan,4,3,1,nan,3,3,24,1,1,7,7,0,0,0,83261174,0.03784,0.00220,0.94946,0.95022,-0.00558,0.00052,-0.00247,0.00613,0.95444,0.00422,0.00625,3,12293,0,7172,0.00000,0.00000,0.00000,0,0,nan,0,0,0,4333,187491,0,0,0.000,0.000,0.000,0,0.000,0.000,0.000,0,0,4,0,0
PPG,3,109384,4376911552,26,571,568,0.000,0.000,0.000,0,0,0,0,0.00,nan,4,3,1,nan,3,3,24,1,1,8,8,0,0,0,83299746,0.03369,0.00415,0.94800,0.94861,-0.00585,-0.00055,-0.00141,0.00604,0.95801,0.00779,0.00604,3,12167,0,7172,0.00000,0.00000,0.00000,0,0,nan,0,0,0,2604,187491,0,0,0.000,0.000,0.000,0,0.000,0.000,0.000,0,0,4,0,0
PPG,3,109385,4376951552,26,564,549,0.000,0.000,0.000,0,0,0,0,0.00,nan,4,3,1,nan,3,3,24,1,1,9,9,0,0,0,83340846,0.03174,0.01050,0.94946,0.95005,-0.00558,-0.00108,-0.00034,0.00570,0.95496,0.00635,0.00601,3,12113,0,7172,0.00000,0.00000,0.00000,0,0,nan,0,0,0,4320,187491,0,0,0.000,0.000,0.000,0,0.000,0.000,0.000,0,0,4,0,0
PPG,3,109386,4376991552,25,575,561,0.000,0.000,0.000,0,0,0,0,0.00,nan,4,3,1,nan,3,3,24,1,1,10,10,0,0,0,83379152,0.03687,0.00854,0.95215,0.95290,-0.00612,-0.00001,-0.00007,0.00612,0.95290,0.00215,0.00617,2,24048,0,7173,0.00000,0.00000,0.00000,0,0,nan,0,0,0,2603,187491,0,0,0.000,0.000,0.000,0,0.000,0.000,0.000,0,0,4,0,0
PPG,3,109387,4377031552,26,568,568,0.000,0.000,0.000,0,0,0,0,0.00,nan,4,3,1,nan,3,3,24,1,1,11,11,0,0,0,83420335,0.03442,0.00781,0.95264,0.95329,-0.00612,-0.00135,-0.00194,0.00656,0.95329,0.00439,0.00656,3,12109,0,7173,0.00000,0.00000,0.00000,0,0,nan,0,0,0,4297,187491,0,0,0.000,0.000,0.000,0,0.000,0.000,0.000,0,0,4,0,0
PPG,3,109388,4377071552,26,573,565,0.000,0.000,0.000,0,0,0,0,0.00,nan,4,3,1,nan,3,3,24,1,1,12,12,0,0,0,83458888,0.03906,0.00635,0.95142,0.95224,-0.00532,-0.00081,-0.00247,0.00592,0.95832,0.00993,0.00596,3,12116,0,7173,0.00000,0.00000,0.00000,0,0,nan,0,0,0,2608,187491,0,0,0.000,0.000,0.000,0,0.000,0.000,0.000,0,0,4,0,0
PPG,3,109389,4377111552,25,583,568,0.000,0.000,0.000,0,0,0,0,0.00,nan,4,3,1,nan,3,3,24,1,1,13,13,0,0,0,83500001,0.03589,0.00732,0.94995,0.95066,-0.00585,0.00025,-0.00194,0.00617,0.95492,0.00532,0.00617,3,12120,0,7173,0.00000,0.00000,0.00000,0,0,nan,0,0,0,4307,187491,0,0,0.000,0.000,0.000,0,0.000,0.000,0.000,0,0,4,0,0
PPG,3,109390,4377151552,25,575,568,0.000,0.000,0.000,0,0,0,0,0.00,nan,4,3,1,nan,3,3,24,1,1,14,14,0,0,0,83538512,0.03784,0.01074,0.95093,0.95174,-0.00612,0.00025,-0.00221,0.00651,0.95174,0.00309,0.00651,3,12113,0,7173,0.00000,0.00000,0.00000,0,0,nan,0,0,0,2614,187491,0,0,0.000,0.000,0.000,0,0.000,0.000,0.000,0,0,4,0,0
PPG,3,109391,4377191552,26,588,568,0.000,0.000,0.000,0,0,0,0,0.00,nan,4,3,1,nan,3,3,24,1,1,15,15,0,0,0,83579707,0.03418,0.00757,0.95508,0.95572,-0.00505,-0.00028,-0.00141,0.00525,0.95572,0.00830,0.00592,3,12104,0,7173,0.00000,0.00000,0.00000,0,0,nan,0,0,0,2593,187491,0,0,0.000,0.000,0.000,0,0.000,0.000,0.000,0,0,4,0,0
PPG,3,109392,4377231552,28,601,560,0.000,0.000,0.000,0,0,0,0,0.00,nan,4,3,1,nan,3,3,24,1,1,16,16,0,0,0,83620820,0.03662,0.01123,0.95361,0.95438,-0.00718,-0.00108,-0.00167,0.00745,0.95438,0.00399,0.00745,3,12114,0,7173,0.00000,0.00000,0.00000,0,0,nan,0,0,0,4300,187491,0,0,0.000,0.000,0.000,0,0.000,0.000,0.000,0,0,4,0,0
PPG,3,109393,4377271552,25,617,571,0.000,0.000,0.000,0,0,0,0,0.00,nan,4,3,1,nan,3,3,24,1,1,17,17,0,0,0,83659379,0.03589,0.00610,0.94897,0.94967,-0.00505,-0.00055,-0.00061,0.00512,0.96117,0.01293,0.00674,3,12148,0,7173,0.00000,0.00000,0.00000,0,0,nan,0,0,0,2607,187491,0,0,0.000,0.000,0.000,0,0.000,0.000,0.000,0,0,4,0,0
PPG,3,109394,4377311552,25,631,572,0.000,0.000,0.000,0,0,0,0,0.00,nan,4,3,1,nan,3,3,24,1,1,18,18,0,0,0,83700492,0.03809,0.00684,0.95020,0.95098,-0.00585,-0.00454,-0.00274,0.00790,0.95124,0.00423,0.00790,3,12113,0,7173,0.00000,0.00000,0.00000,0,0,nan,0,0,0,4306,187491,0,0,0.000,0.000,0.000,0,0.000,0.000,0.000,0,0,4,0,0
PPG,3,109395,4377351552,25,623,576,0.000,0.000,0.000,0,0,0,0,0.00,nan,4,3,1,nan,3,3,24,1,1,19,19,0,0,0,83739014,0.03516,0.00659,0.94873,0.94940,-0.00505,0.00052,-0.00167,0.00535,0.95588,0.00647,0.00638,3,12109,0,7173,0.00000,0.00000,0.00000,0,0,nan,0,0,0,2602,187491,0,0,0.000,0.000,0.000,0,0.000,0.000,0.000,0,0,4,0,0
PPG,3,109396,4377391552,25,656,583,0.000,0.000,0.000,0,0,0,0,0.00,nan,4,3,1,nan,3,3,24,1,1,20,20,0,0,0,83780152,0.03516,0.00562,0.95410,0.95477,-0.00638,-0.00268,-0.00221,0.00727,0.95665,0.00724,0.00727,3,12112,0,7173,0.00000,0.00000,0.00000,0,0,nan,0,0,0,4301,187491,0,0,0.000,0.000,0.000,0,0.000,0.000,0.000,0,0,4,0,0
PPG,3,109397,4377431552,25,886,684,0.000,0.000,0.000,0,0,0,0,0.00,nan,4,3,1,nan,3,3,24,1,1,21,21,0,0,0,83818665,0.03979,0.00903,0.95020,0.95107,-0.00612,-0.00108,-0.00194,0.00651,0.95313,0.00855,0.00653,3,12125,0,7173,0.00000,0.00000,0.00000,0,0,nan,0,0,0,2599,187491,0,0,0.000,0.000,0.000,0,0.000,0.000,0.000,0,0,4,0,0
PPG,3,109398,4377471552,25,1498,1192,0.000,0.000,0.000,0,0,0,0,0.00,nan,4,3,1,nan,3,3,24,1,1,22,22,0,0,0,83859824,0.03931,0.00684,0.95239,0.95323,-0.00585,-0.00081,-0.00274,0.00651,0.95733,0.00789,0.00651,3,12165,0,7173,0.00000,0.00000,0.00000,0,0,nan,0,0,0,2599,187491,0,0,0.000,0.000,0.000,0,0.000,0.000,0.000,0,0,4,0,0
PPG,3,109399,4377511552,26,2357,1984,0.000,0.000,0.000,0,0,0,0,0.00,nan,4,3,1,nan,3,3,24,1,1,23,23,0,0,0,83900943,0.03491,0.00952,0.95630,0.95698,-0.00558,-0.00161,-0.00194,0.00613,0.95698,0.00449,0.00721,3,12123,0,7173,0.00000,0.00000,0.00000,0,0,nan,0,0,0,4294,187491,0,0,0.000,0.000,0.000,0,0.000,0.000,0.000,0,0,4,0,0
PPG,3,109400,4377551552,25,3224,2757,0.000,0.000,0.000,0,0,0,0,0.00,nan,4,3,1,nan,3,3,24,1,1,24,24,0,0,0,83939445,0.03296,0.00635,0.95532,0.95591,-0.00558,-0.00001,-0.00141,0.00576,0.95591,0.00244,0.00622,3,12118,0,7173,0.00000,0.00000,0.00000,0,0,nan,0,0,0,2605,187491,0,0,0.000,0.000,0.000,0,0.000,0.000,0.000,0,0,4,0,0
PPG,3,109401,4377591552,25,4055,3398,0.000,0.000,0.000,0,0,0,0,0.00,nan,4,3,1,nan,3,3,24,1,1,25,25,0,0,0,83980561,0.03540,0.00488,0.95337,0.95404,-0.00532,-0.00028,-0.00167,0.00558,0.95404,0.00662,0.00690,3,12108,0,7173,0.00000,0.00000,0.00000,0,0,nan,0,0,0,4301,187491,0,0,0.000,0.000,0.000,0,0.000,0.000,0.000,0,0,4,0,0
PPG,3,109402,4377631552,25,4679,3880,0.000,0.000,0.000,0,0,0,0,0.00,nan,4,3,1,nan,3,3,24,1,1,26,26,0,0,0,84019072,0.04150,0.00635,0.95605,0.95698,-0.00638,-0.00081,-0.00167,0.00665,0.95698,0.00508,0.00665,3,12116,0,7173,0.00000,0.00000,0.00000,0,0,nan,0,0,0,2596,187491,0,0,0.000,0.000,0.000,0,0.000,0.000,0.000,0,0,4,0,0
PPG,3,109403,4377671552,25,5925,4862,0.000,0.000,0.000,0,0,0,0,0.00,nan,4,3,1,nan,3,3,24,1,1,27,27,0,0,0,84060203,0.03540,0.00342,0.95068,0.95135,-0.00558,-0.00001,-0.00087,0.00565,0.95361,0.00754,0.00675,3,12155,0,7173,0.00000,0.00000,0.00000,0,0,nan,0,0,0,4302,187491,0,0,0.000,0.000,0.000,0,0.000,0.000,0.000,0,0,4,0,0
PPG,3,109404,4377711552,25,7407,6110,0.000,0.000,0.000,0,0,0,0,0.00,nan,4,3,1,nan,3,3,24,1,1,28,28,0,0,0,84098716,0.03833,0.00659,0.94971,0.95050,-0.00638,-0.00055,-0.00061,0.00644,0.95329,0.00494,0.00650,3,12125,0,7173,0.00000,0.00000,0.00000,0,0,nan,0,0,0,2595,187491,0,0,0.000,0.000,0.000,0,0.000,0.000,0.000,0,0,4,0,0
PPG,3,109405,4377751552,25,8933,7013,0.000,0.000,0.000,0,0,0,0,0.00,nan,4,3,1,nan,3,3,24,1,1,29,29,0,0,0,84139811,0.04028,0.00830,0.95020,0.95109,-0.00532,-0.00055,-0.00194,0.00569,0.95472,0.00421,0.00569,3,12118,0,7173,0.00000,0.00000,0.00000,0,0,nan,0,0,0,2596,187491,0,0,0.000,0.000,0.000,0,0.000,0.000,0.000,0,0,4,0,0
