type,session_id,sample_index,sample_time_us,processing_time_us,red_raw,ir_raw,ir_dc,ir_ac,ir_filtered,peak_custom,peak_sparkfun,peak_accepted,ibi_ms,bpm_instant,bpm_robust,hr_status,ppg_quality,ppg_quality_flags,spo2_result,spo2_status,spo2_quality,led_amplitude,sparkfun_check_count,sparkfun_available,hw_fifo_read_ptr,hw_fifo_write_ptr,hw_fifo_overflow,suspected_drops,missing_samples,mpu_time_us,ax_g,ay_g,az_g,acc_mag_g,gx_rad_s,gy_rad_s,gz_rad_s,gyro_mag_rad_s,mpu_window_peak_g,mpu_window_delta_g,mpu_window_gyro_rad_s,mpu_window_samples,mpu_dt_us,mpu_saturated,mpu_missed_deadlines,ppg_mod_ir_pct,ppg_mod_red_pct,ppg_ratio_r,spo2_maxim,spo2_maxim_valid,spo2_custom_candidate,maxim_hr,maxim_hr_valid,measurement_state,loop_last_us,loop_max_us,display_render_us,i2c_failures,red_prominence,red_threshold,red_snr,red_candidate,ir_prominence,ir_threshold,ir_snr,ir_candidate,peak_fused,detector_state,quarantine_remaining_ms,synchronized_count
PPG,1,94643,3787271552,26,481,492,0.000,0.000,0.000,0,0,0,0,0.00,nan,4,3,1,nan,3,3,24,1,1,19,19,0,0,0,3788460125,0.03833,0.00830,0.95313,0.95393,-0.00585,-0.00001,-0.00007,0.00585,0.95575,0.00591,0.00642,3,12183,0,6231,0.00000,0.00000,0.00000,0,0,nan,0,0,0,2596,187491,0,0,0.000,0.000,0.000,0,0.000,0.000,0.000,0,0,4,0,0
PPG,1,94644,3787311552,25,494,501,0.000,0.000,0.000,0,0,0,0,0.00,nan,4,3,1,nan,3,3,24,1,1,20,20,0,0,0,3788501257,0.03613,0.00610,0.95166,0.95237,-0.00532,-0.00108,-0.00114,0.00554,0.95528,0.00292,0.00647,3,12117,0,6231,0.00000,0.00000,0.00000,0,0,nan,0,0,0,4302,187491,0,0,0.000,0.000,0.000,0,0.000,0.000,0.000,0,0,4,0,0
PPG,1,94645,3787351552,24,495,504,0.000,0.000,0.000,0,0,0,0,0.00,nan,4,3,1,nan,3,3,24,1,1,21,21,0,0,0,3788556128,0.03491,0.00439,0.95386,0.95451,-0.00505,-0.00081,-0.00141,0.00531,0.95458,0.00517,0.00659,4,16358,0,6231,0.00000,0.00000,0.00000,0,0,nan,0,0,0,16279,187491,0,0,0.000,0.000,0.000,0,0.000,0.000,0.000,0,0,4,0,0
PPG,1,94646,3787391552,26,496,511,0.000,0.000,0.000,0,0,0,0,0.00,nan,4,3,1,nan,3,3,24,1,1,22,22,0,0,0,3788582663,0.04053,0.00391,0.94922,0.95009,-0.00612,-0.00055,-0.00167,0.00637,0.95009,0.00963,0.00637,2,12145,0,6231,0.00000,0.00000,0.00000,0,0,nan,0,0,0,4303,187491,0,0,0.000,0.000,0.000,0,0.000,0.000,0.000,0,0,4,0,0
PPG,1,94647,3787431552,25,480,496,0.000,0.000,0.000,0,0,0,0,0.00,nan,4,3,1,nan,3,3,24,1,1,23,23,0,0,0,3788621230,0.03784,0.00586,0.94873,0.94950,-0.00505,0.00079,-0.00221,0.00557,0.95500,0.01087,0.00593,3,12119,0,6231,0.00000,0.00000,0.00000,0,0,nan,0,0,0,4296,187491,0,0,0.000,0.000,0.000,0,0.000,0.000,0.000,0,0,4,0,0
PPG,1,94648,3787471552,25,494,503,0.000,0.000,0.000,0,0,0,0,0.00,nan,4,3,1,nan,3,3,24,1,1,24,24,0,0,0,3788659778,0.03784,0.00244,0.95117,0.95193,-0.00585,-0.00028,-0.00167,0.00609,0.95193,0.00471,0.00635,3,12155,0,6231,0.00000,0.00000,0.00000,0,0,nan,0,0,0,2595,187491,0,0,0.000,0.000,0.000,0,0.000,0.000,0.000,0,0,4,0,0
PPG,1,94649,3787511552,26,504,511,0.000,0.000,0.000,0,0,0,0,0.00,nan,4,3,1,nan,3,3,24,1,1,25,25,0,0,0,3788700903,0.04443,0.00513,0.95239,0.95344,-0.00745,-0.00055,-0.00167,0.00765,0.95344,0.00260,0.00765,3,12127,0,6231,0.00000,0.00000,0.00000,0,0,nan,0,0,0,4299,187491,0,0,0.000,0.000,0.000,0,0.000,0.000,0.000,0,0,4,0,0
PPG,1,94650,3787551552,25,499,512,0.000,0.000,0.000,0,0,0,0,0.00,nan,4,3,1,nan,3,3,24,1,1,26,26,0,0,0,3788739446,0.04297,0.00586,0.95093,0.95192,-0.00558,-0.00081,-0.00194,0.00597,0.95325,0.00518,0.00597,3,12127,0,6231,0.00000,0.00000,0.00000,0,0,nan,0,0,0,2599,187491,0,0,0.000,0.000,0.000,0,0.000,0.000,0.000,0,0,4,0,0
PPG,1,94651,3787591552,25,481,510,0.000,0.000,0.000,0,0,0,0,0.00,nan,4,3,1,nan,3,3,24,1,1,27,27,0,0,0,3788780652,0.03882,0.00586,0.95239,0.95320,-0.00532,-0.00108,-0.00194,0.00576,0.95320,0.00307,0.00589,3,12123,0,6231,0.00000,0.00000,0.00000,0,0,nan,0,0,0,2599,187491,0,0,0.000,0.000,0.000,0,0.000,0.000,0.000,0,0,4,0,0
PPG,1,94652,3787631552,25,489,500,0.000,0.000,0.000,0,0,0,0,0.00,nan,4,3,1,nan,3,3,24,1,1,28,28,0,0,0,3788821768,0.04077,0.00830,0.95630,0.95720,-0.00505,-0.00108,-0.00141,0.00535,0.95720,0.00890,0.00592,3,12118,0,6231,0.00000,0.00000,0.00000,0,0,nan,0,0,0,4300,187491,0,0,0.000,0.000,0.000,0,0.000,0.000,0.000,0,0,4,0,0
PPG,1,94653,3787671552,25,501,499,0.000,0.000,0.000,0,0,0,0,0.00,nan,4,3,1,nan,3,3,24,1,1,29,29,0,0,0,3788860304,0.03857,0.00439,0.95215,0.95294,-0.00585,0.00052,0.00019,0.00588,0.95518,0.00346,0.00603,3,12146,0,6231,0.00000,0.00000,0.00000,0,0,nan,0,0,0,2648,187491,0,0,0.000,0.000,0.000,0,0.000,0.000,0.000,0,0,4,0,0
PPG,1,94654,3787711552,25,500,513,0.000,0.000,0.000,0,0,0,0,0.00,nan,4,3,1,nan,3,3,24,1,1,30,30,0,0,0,3788901808,0.04004,0.00952,0.95435,0.95523,-0.00479,-0.00081,-0.00194,0.00523,0.95523,0.00269,0.00661,3,12122,0,6231,0.00000,0.00000,0.00000,0,0,nan,0,0,0,4302,187491,0,0,0.000,0.000,0.000,0,0.000,0.000,0.000,0,0,4,0,0
PPG,1,94655,3787751552,25,493,508,0.000,0.000,0.000,0,0,0,0,0.00,nan,4,3,1,nan,3,3,24,1,1,31,31,0,0,0,3788940359,0.04028,0.00659,0.94946,0.95034,-0.00532,-0.00001,-0.00141,0.00550,0.95312,0.00500,0.00673,3,12111,0,6231,0.00000,0.00000,0.00000,0,0,nan,0,0,0,2600,187491,0,0,0.000,0.000,0.000,0,0.000,0.000,0.000,0,0,4,0,0
PPG,1,94656,3787791552,39,507,519,0.000,0.000,0.000,0,0,0,0,0.00,nan,4,3,1,nan,3,3,24,1,1,0,0,0,0,0,3788981528,0.03760,0.00391,0.95020,0.95095,-0.00505,0.00105,-0.00141,0.00535,0.95431,0.00397,0.00676,3,12121,0,6231,0.00000,0.00000,0.00000,0,0,nan,0,0,0,4294,187491,0,0,0.000,0.000,0.000,0,0.000,0.000,0.000,0,0,4,0,0
PPG,1,94657,3787831552,25,503,523,0.000,0.000,0.000,0,0,0,0,0.00,nan,4,3,1,nan,3,3,24,1,1,1,1,0,0,0,3789020179,0.03857,0.01001,0.95410,0.95493,-0.00638,-0.00188,-0.00087,0.00671,0.95493,0.00383,0.00671,3,12137,0,6231,0.00000,0.00000,0.00000,0,0,nan,0,0,0,2655,187491,0,0,0.000,0.000,0.000,0,0.000,0.000,0.000,0,0,4,0,0
PPG,1,94658,3787871552,38,499,498,0.000,0.000,0.000,0,0,0,0,0.00,nan,4,3,1,nan,3,3,24,1,1,2,2,0,0,0,3789061630,0.03833,0.00830,0.95313,0.95393,-0.00638,-0.00108,-0.00114,0.00657,0.95393,0.00569,0.00694,3,12331,0,6231,0.00000,0.00000,0.00000,0,0,nan,0,0,0,4356,187491,0,0,0.000,0.000,0.000,0,0.000,0.000,0.000,0,0,4,0,0
PPG,1,94659,3787911552,39,495,505,0.000,0.000,0.000,0,0,0,0,0.00,nan,4,3,1,nan,3,3,24,1,1,3,3,0,0,0,3789100674,0.03955,0.00415,0.94116,0.94200,-0.00612,-0.00055,-0.00141,0.00630,0.95463,0.00648,0.00752,3,12251,0,6231,0.00000,0.00000,0.00000,0,0,nan,0,0,0,2641,187491,0,0,0.000,0.000,0.000,0,0.000,0.000,0.000,0,0,4,0,0
PPG,1,94660,3787951552,26,491,517,0.000,0.000,0.000,0,0,0,0,0.00,nan,4,3,1,nan,3,3,24,1,1,4,4,0,0,0,3789142323,0.03809,0.00708,0.95337,0.95416,-0.00585,-0.00081,-0.00141,0.00607,0.95416,0.01112,0.00607,3,12256,0,6231,0.00000,0.00000,0.00000,0,0,nan,0,0,0,4340,187491,0,0,0.000,0.000,0.000,0,0.000,0.000,0.000,0,0,4,0,0
PPG,1,94661,3787991552,26,494,500,0.000,0.000,0.000,0,0,0,0,0.00,nan,4,3,1,nan,3,3,24,1,1,5,5,0,0,0,3789181219,0.04443,0.00659,0.94727,0.94833,-0.00585,-0.00001,-0.00194,0.00616,0.95172,0.00293,0.00616,3,12297,0,6231,0.00000,0.00000,0.00000,0,0,nan,0,0,0,4332,187491,0,0,0.000,0.000,0.000,0,0.000,0.000,0.000,0,0,4,0,0
PPG,1,94662,3788031552,25,488,511,0.000,0.000,0.000,0,0,0,0,0.00,nan,4,3,1,nan,3,3,24,1,1,6,6,0,0,0,3789220093,0.04077,0.00903,0.94897,0.94989,-0.00638,-0.00055,-0.00114,0.00651,0.95168,0.00226,0.00651,3,12249,0,6231,0.00000,0.00000,0.00000,0,0,nan,0,0,0,2623,187491,0,0,0.000,0.000,0.000,0,0.000,0.000,0.000,0,0,4,0,0
PPG,1,94663,3788071552,25,499,501,0.000,0.000,0.000,0,0,0,0,0.00,nan,4,3,1,nan,3,3,24,1,1,7,7,0,0,0,3789261621,0.03882,0.01099,0.95093,0.95178,-0.00612,-0.00028,-0.00114,0.00623,0.95514,0.00524,0.00673,3,12253,0,6231,0.00000,0.00000,0.00000,0,0,nan,0,0,0,4334,187491,0,0,0.000,0.000,0.000,0,0.000,0.000,0.000,0,0,4,0,0
PPG,1,94664,3788111552,25,486,515,0.000,0.000,0.000,0,0,0,0,0.00,nan,4,3,1,nan,3,3,24,1,1,8,8,0,0,0,3789300533,0.04199,0.00366,0.95093,0.95186,-0.00505,-0.00055,-0.00087,0.00516,0.95249,0.00089,0.00516,3,12256,0,6231,0.00000,0.00000,0.00000,0,0,nan,0,0,0,2631,187491,0,0,0.000,0.000,0.000,0,0.000,0.000,0.000,0,0,4,0,0
PPG,1,94665,3788151552,26,497,516,0.000,0.000,0.000,0,0,0,0,0.00,nan,4,3,1,nan,3,3,24,1,1,9,9,0,0,0,3789341993,0.04053,0.00537,0.94849,0.94937,-0.00558,-0.00135,-0.00221,0.00615,0.95736,0.00799,0.00679,3,12245,0,6231,0.00000,0.00000,0.00000,0,0,nan,0,0,0,4336,187491,0,0,0.000,0.000,0.000,0,0.000,0.000,0.000,0,0,4,0,0
PPG,1,94666,3788191552,26,496,511,0.000,0.000,0.000,0,0,0,0,0.00,nan,4,3,1,nan,3,3,24,1,1,10,10,0,0,0,3789380922,0.03955,0.00977,0.95215,0.95302,-0.00558,-0.00028,-0.00141,0.00577,0.95302,0.00557,0.00578,3,12296,0,6231,0.00000,0.00000,0.00000,0,0,nan,0,0,0,2628,187491,0,0,0.000,0.000,0.000,0,0.000,0.000,0.000,0,0,4,0,0
PPG,1,94667,3788231552,25,494,516,0.000,0.000,0.000,0,0,0,0,0.00,nan,4,3,1,nan,3,3,24,1,1,11,11,0,0,0,3789422422,0.03760,0.00854,0.95117,0.95195,-0.00612,-0.00055,-0.00194,0.00644,0.95195,0.00331,0.00644,3,12282,0,6231,0.00000,0.00000,0.00000,0,0,nan,0,0,0,4331,187491,0,0,0.000,0.000,0.000,0,0.000,0.000,0.000,0,0,4,0,0
PPG,1,94668,3788271552,25,494,503,0.000,0.000,0.000,0,0,0,0,0.00,nan,4,3,1,nan,3,3,24,1,1,12,12,0,0,0,3789461272,0.04053,0.00269,0.94678,0.94765,-0.00692,-0.00028,-0.00221,0.00727,0.95620,0.00855,0.00727,3,12252,0,6231,0.00000,0.00000,0.00000,0,0,nan,0,0,0,4343,187491,0,0,0.000,0.000,0.000,0,0.000,0.000,0.000,0,0,4,0,0
PPG,1,94669,3788311552,25,491,499,0.000,0.000,0.000,0,0,0,0,0.00,nan,4,3,1,nan,3,3,24,1,1,13,13,0,0,0,3789500110,0.04053,0.00562,0.95288,0.95376,-0.00532,-0.00028,-0.00114,0.00545,0.95376,0.00532,0.00654,3,12237,0,6231,0.00000,0.00000,0.00000,0,0,nan,0,0,0,2645,187491,0,0,0.000,0.000,0.000,0,0.000,0.000,0.000,0,0,4,0,0
PPG,1,94670,3788351552,24,497,516,0.000,0.000,0.000,0,0,0,0,0.00,nan,4,3,1,nan,3,3,24,1,1,14,14,0,0,0,3789557901,0.03662,0.00439,0.95654,0.95725,-0.00532,-0.00028,-0.00087,0.00540,0.95725,0.00237,0.00699,4,16342,0,6231,0.00000,0.00000,0.00000,0,0,nan,0,0,0,16283,187491,0,0,0.000,0.000,0.000,0,0.000,0.000,0.000,0,0,4,0,0
PPG,1,94671,3788391552,24,498,512,0.000,0.000,0.000,0,0,0,0,0.00,nan,4,3,1,nan,3,3,24,1,1,15,15,0,0,0,3789584601,0.03979,0.00684,0.94922,0.95008,-0.00665,-0.00055,-0.00194,0.00695,0.95137,0.00589,0.00695,2,12312,0,6231,0.00000,0.00000,0.00000,0,0,nan,0,0,0,2633,187491,0,0,0.000,0.000,0.000,0,0.000,0.000,0.000,0,0,4,0,0
PPG,1,94672,3788431552,26,507,508,0.000,0.000,0.000,0,0,0,0,0.00,nan,4,3,1,nan,3,3,24,1,1,16,16,0,0,0,3789623414,0.03662,0.00708,0.95215,0.95288,-0.00612,-0.00028,-0.00167,0.00635,0.95815,0.00884,0.00693,3,12238,0,6231,0.00000,0.00000,0.00000,0,0,nan,0,0,0,4339,187491,0,0,0.000,0.000,0.000,0,0.000,0.000,0.000,0,0,4,0,0
PPG,1,94673,3788471552,39,489,511,0.000,0.000,0.000,0,0,0,0,0.00,nan,4,3,1,nan,3,3,24,1,1,17,17,0,0,0,3789662200,0.03955,0.00610,0.95313,0.95396,-0.00558,-0.00001,-0.00247,0.00611,0.95396,0.00373,0.00611,3,12184,0,6231,0.00000,0.00000,0.00000,0,0,nan,0,0,0,4359,187491,0,0,0.000,0.000,0.000,0,0.000,0.000,0.000,0,0,4,0,0
PPG,1,94674,3788511552,38,499,509,0.000,0.000,0.000,0,0,0,0,0.00,nan,4,3,1,nan,3,3,24,1,1,18,18,0,0,0,3789701035,0.03857,0.00171,0.95581,0.95659,-0.00638,0.00052,-0.00167,0.00662,0.95659,0.00185,0.00677,3,12164,0,6231,0.00000,0.00000,0.00000,0,0,nan,0,0,0,2625,187491,0,0,0.000,0.000,0.000,0,0.000,0.000,0.000,0,0,4,0,0
PPG,1,94675,3788551552,25,501,512,0.000,0.000,0.000,0,0,0,0,0.00,nan,4,3,1,nan,3,3,24,1,1,19,19,0,0,0,3789742411,0.03687,0.01294,0.94922,0.95002,-0.00612,-0.00081,-0.00194,0.00647,0.95171,0.00488,0.00647,3,12136,0,6231,0.00000,0.00000,0.00000,0,0,nan,0,0,0,4300,187491,0,0,0.000,0.000,0.000,0,0.000,0.000,0.000,0,0,4,0,0
PPG,1,94676,3788591552,25,489,497,0.000,0.000,0.000,0,0,0,0,0.00,nan,4,3,1,nan,3,3,24,1,1,20,20,0,0,0,3789780937,0.03613,0.00562,0.95215,0.95285,-0.00585,-0.00108,-0.00087,0.00601,0.95285,0.00508,0.00601,3,12133,0,6231,0.00000,0.00000,0.00000,0,0,nan,0,0,0,2626,187491,0,0,0.000,0.000,0.000,0,0.000,0.000,0.000,0,0,4,0,0
PPG,1,94677,3788631552,25,484,512,0.000,0.000,0.000,0,0,0,0,0.00,nan,4,3,1,nan,3,3,24,1,1,21,21,0,0,0,3789822091,0.03467,0.00708,0.95386,0.95451,-0.00638,-0.00028,-0.00141,0.00654,0.95484,0.00264,0.00654,3,12125,0,6231,0.00000,0.00000,0.00000,0,0,nan,0,0,0,4298,187491,0,0,0.000,0.000,0.000,0,0.000,0.000,0.000,0,0,4,0,0
PPG,1,94678,3788671552,25,500,515,0.000,0.000,0.000,0,0,0,0,0.00,nan,4,3,1,nan,3,3,24,1,1,22,22,0,0,0,3789860599,0.03638,0.00757,0.95166,0.95239,-0.00692,-0.00055,-0.00061,0.00696,0.95594,0.00355,0.00706,3,12122,0,6231,0.00000,0.00000,0.00000,0,0,nan,0,0,0,2597,187491,0,0,0.000,0.000,0.000,0,0.000,0.000,0.000,0,0,4,0,0
PPG,1,94679,3788711552,25,504,522,0.000,0.000,0.000,0,0,0,0,0.00,nan,4,3,1,nan,3,3,24,1,1,23,23,0,0,0,3789937124,0.03711,0.00757,0.95605,0.95680,-0.00638,0.00025,-0.00221,0.00676,0.95680,0.00371,0.00751,2,59696,0,6235,0.00000,0.00000,0.00000,0,0,nan,0,0,0,59717,187491,0,0,0.000,0.000,0.000,0,0.000,0.000,0.000,0,0,4,0,0
PPG,1,94680,3788751552,25,488,510,0.000,0.000,0.000,0,0,0,0,0.00,nan,4,3,1,nan,3,3,24,1,1,24,24,0,0,0,3789937124,0.03711,0.00757,0.95605,0.95680,-0.00638,0.00025,-0.00221,0.00676,0.00000,0.00000,0.00000,0,59696,0,6235,0.00000,0.00000,0.00000,0,0,nan,0,0,0,11691,187491,0,0,0.000,0.000,0.000,0,0.000,0.000,0.000,0,0,4,0,0
PPG,1,94681,3788791552,38,498,503,0.000,0.000,0.000,0,0,0,0,0.00,nan,4,3,1,nan,3,3,24,1,1,25,25,0,0,0,3789983012,0.03931,0.00586,0.94775,0.94859,-0.00558,0.00079,-0.00194,0.00596,0.95882,0.01024,0.00646,3,12124,0,6236,0.00000,0.00000,0.00000,0,0,nan,0,0,0,4320,187491,0,0,0.000,0.000,0.000,0,0.000,0.000,0.000,0,0,4,0,0
PPG,1,94682,3788831552,25,489,509,0.000,0.000,0.000,0,0,0,0,0.00,nan,4,3,1,nan,3,3,24,1,1,26,26,0,0,0,3790021641,0.03540,0.00610,0.94849,0.94917,-0.00612,-0.00188,-0.00087,0.00646,0.95121,0.00205,0.00646,3,12112,0,6236,0.00000,0.00000,0.00000,0,0,nan,0,0,0,4300,187491,0,0,0.000,0.000,0.000,0,0.000,0.000,0.000,0,0,4,0,0
PPG,1,94683,3788871552,25,499,517,0.000,0.000,0.000,0,0,0,0,0.00,nan,4,3,1,nan,3,3,24,1,1,27,27,0,0,0,3790060141,0.03857,0.00513,0.95410,0.95489,-0.00585,-0.00161,-0.00141,0.00623,0.95489,0.00563,0.00623,3,12109,0,6236,0.00000,0.00000,0.00000,0,0,nan,0,0,0,2606,187491,0,0,0.000,0.000,0.000,0,0.000,0.000,0.000,0,0,4,0,0
PPG,1,94684,3788911552,26,497,519,0.000,0.000,0.000,0,0,0,0,0.00,nan,4,3,1,nan,3,3,24,1,1,28,28,0,0,0,3790101355,0.03931,0.00171,0.94971,0.95052,-0.00532,-0.00055,-0.00141,0.00553,0.95177,0.00312,0.00554,3,12188,0,6236,0.00000,0.00000,0.00000,0,0,nan,0,0,0,4316,187491,0,0,0.000,0.000,0.000,0,0.000,0.000,0.000,0,0,4,0,0
PPG,1,94685,3788951552,25,487,504,0.000,0.000,0.000,0,0,0,0,0.00,nan,4,3,1,nan,3,3,24,1,1,29,29,0,0,0,3790139875,0.04150,0.00708,0.94849,0.94942,-0.00505,0.00025,-0.00141,0.00525,0.95399,0.00640,0.00525,3,12120,0,6236,0.00000,0.00000,0.00000,0,0,nan,0,0,0,2595,187491,0,0,0.000,0.000,0.000,0,0.000,0.000,0.000,0,0,4,0,0
PPG,1,94686,3788991552,25,476,494,0.000,0.000,0.000,0,0,0,0,0.00,nan,4,3,1,nan,3,3,24,1,1,30,30,0,0,0,3790180978,0.04077,0.00659,0.94824,0.94914,-0.00532,-0.00055,-0.00114,0.00547,0.95423,0.00618,0.00630,3,12115,0,6236,0.00000,0.00000,0.00000,0,0,nan,0,0,0,2599,187491,0,0,0.000,0.000,0.000,0,0.000,0.000,0.000,0,0,4,0,0
PPG,1,94687,3789031552,29,493,502,0.000,0.000,0.000,0,0,0,0,0.00,nan,4,3,1,nan,3,3,24,1,1,31,31,0,0,0,3790222116,0.03760,0.00269,0.94824,0.94899,-0.00558,-0.00081,-0.00221,0.00606,0.95649,0.00765,0.00662,3,12117,0,6236,0.00000,0.00000,0.00000,0,0,nan,0,0,0,4300,187491,0,0,0.000,0.000,0.000,0,0.000,0.000,0.000,0,0,4,0,0
PPG,1,94688,3789071552,25,502,504,0.000,0.000,0.000,0,0,0,0,0.00,nan,4,3,1,nan,3,3,24,1,1,0,0,0,0,0,3790260627,0.03833,0.00757,0.94897,0.94978,-0.00558,-0.00055,-0.00087,0.00568,0.95359,0.00459,0.00630,3,12118,0,6236,0.00000,0.00000,0.00000,0,0,nan,0,0,0,2595,187491,0,0,0.000,0.000,0.000,0,0.000,0.000,0.000,0,0,4,0,0
PPG,1,94689,3789111552,25,493,510,0.000,0.000,0.000,0,0,0,0,0.00,nan,4,3,1,nan,3,3,24,1,1,1,1,0,0,0,3790301775,0.03687,0.00806,0.94775,0.94850,-0.00585,0.00079,-0.00087,0.00597,0.95043,0.00192,0.00668,3,12171,0,6236,0.00000,0.00000,0.00000,0,0,nan,0,0,0,4305,187491,0,0,0.000,0.000,0.000,0,0.000,0.000,0.000,0,0,4,0,0
PPG,1,94690,3789151552,25,500,521,0.000,0.000,0.000,0,0,0,0,0.00,nan,4,3,1,nan,3,3,24,1,1,2,2,0,0,0,3790340312,0.03760,0.00586,0.95435,0.95510,-0.00612,0.00079,-0.00247,0.00664,0.95510,0.00506,0.00727,3,12122,0,6236,0.00000,0.00000,0.00000,0,0,nan,0,0,0,2602,187491,0,0,0.000,0.000,0.000,0,0.000,0.000,0.000,0,0,4,0,0
PPG,1,94691,3789191552,25,487,512,0.000,0.000,0.000,0,0,0,0,0.00,nan,4,3,1,nan,3,3,24,1,1,3,3,0,0,0,3790381452,0.04004,0.00977,0.95044,0.95133,-0.00585,-0.00135,-0.00194,0.00631,0.95649,0.00467,0.00654,3,12119,0,6236,0.00000,0.00000,0.00000,0,0,nan,0,0,0,4304,187491,0,0,0.000,0.000,0.000,0,0.000,0.000,0.000,0,0,4,0,0
PPG,1,94692,3789231552,25,476,498,0.000,0.000,0.000,0,0,0,0,0.00,nan,4,3,1,nan,3,3,24,1,1,4,4,0,0,0,3790419994,0.03979,0.00513,0.95435,0.95519,-0.00585,-0.00081,-0.00194,0.00622,0.95741,0.01010,0.00752,3,12116,0,6236,0.00000,0.00000,0.00000,0,0,nan,0,0,0,2597,187491,0,0,0.000,0.000,0.000,0,0.000,0.000,0.000,0,0,4,0,0
PPG,1,94693,3789271552,25,479,502,0.000,0.000,0.000,0,0,0,0,0.00,nan,4,3,1,nan,3,3,24,1,1,5,5,0,0,0,3790461101,0.03735,0.00708,0.94824,0.94900,-0.00665,-0.00055,-0.00274,0.00721,0.95713,0.00762,0.00721,3,12124,0,6236,0.00000,0.00000,0.00000,0,0,nan,0,0,0,2596,187491,0,0,0.000,0.000,0.000,0,0.000,0.000,0.000,0,0,4,0,0
PPG,1,94694,3789311552,25,499,506,0.000,0.000,0.000,0,0,0,0,0.00,nan,4,3,1,nan,3,3,24,1,1,6,6,0,0,0,3790502250,0.03931,0.00488,0.95166,0.95248,-0.00452,-0.00001,-0.00221,0.00503,0.95410,0.00589,0.00647,3,12142,0,6236,0.00000,0.00000,0.00000,0,0,nan,0,0,0,4297,187491,0,0,0.000,0.000,0.000,0,0.000,0.000,0.000,0,0,4,0,0
PPG,1,94695,3789351552,24,496,505,0.000,0.000,0.000,0,0,0,0,0.00,nan,4,3,1,nan,3,3,24,1,1,7,7,0,0,0,3790559562,0.03760,0.00464,0.95068,0.95144,-0.00612,-0.00108,-0.00141,0.00637,0.95655,0.00958,0.00780,4,18816,0,6236,0.00000,0.00000,0.00000,0,0,nan,0,0,0,14452,187491,0,0,0.000,0.000,0.000,0,0.000,0.000,0.000,0,0,4,0,0
PPG,1,94696,3789391552,23,492,511,0.000,0.000,0.000,0,0,0,0,0.00,nan,4,3,1,nan,3,3,24,1,1,8,8,0,0,0,3790586042,0.03906,0.00977,0.95581,0.95666,-0.00585,-0.00081,-0.00194,0.00622,0.95666,0.00511,0.00622,2,12142,0,6236,0.00000,0.00000,0.00000,0,0,nan,0,0,0,2586,187491,0,0,0.000,0.000,0.000,0,0.000,0.000,0.000,0,0,4,0,0
PPG,1,94697,3789431552,24,502,518,0.000,0.000,0.000,0,0,0,0,0.00,nan,4,3,1,nan,3,3,24,1,1,9,9,0,0,0,3790624604,0.04028,0.00635,0.95435,0.95522,-0.00585,-0.00028,-0.00221,0.00626,0.95522,0.00718,0.00663,3,12137,0,6236,0.00000,0.00000,0.00000,0,0,nan,0,0,0,2610,187491,0,0,0.000,0.000,0.000,0,0.000,0.000,0.000,0,0,4,0,0
PPG,1,94698,3789471552,29,488,511,0.000,0.000,0.000,0,0,0,0,0.00,nan,4,3,1,nan,3,3,24,1,1,10,10,0,0,0,3790663122,0.03833,0.00684,0.94336,0.94416,-0.00479,-0.00161,-0.00167,0.00532,0.95547,0.00699,0.00644,3,12134,0,6236,0.00000,0.00000,0.00000,0,0,nan,0,0,0,4296,187491,0,0,0.000,0.000,0.000,0,0.000,0.000,0.000,0,0,4,0,0
PPG,1,94699,3789511552,26,470,489,0.000,0.000,0.000,0,0,0,0,0.00,nan,4,3,1,nan,3,3,24,1,1,11,11,0,0,0,3790701629,0.04053,0.00854,0.95068,0.95159,-0.00585,-0.00081,-0.00141,0.00607,0.95375,0.00959,0.00607,3,12118,0,6236,0.00000,0.00000,0.00000,0,0,nan,0,0,0,4297,187491,0,0,0.000,0.000,0.000,0,0.000,0.000,0.000,0,0,4,0,0
PPG,1,94700,3789551552,25,496,493,0.000,0.000,0.000,0,0,0,0,0.00,nan,4,3,1,nan,3,3,24,1,1,12,12,0,0,0,3790740175,0.04199,0.00977,0.95337,0.95434,-0.00692,0.00025,-0.00114,0.00701,0.95434,0.00586,0.00701,3,12117,0,6236,0.00000,0.00000,0.00000,0,0,nan,0,0,0,2607,187491,0,0,0.000,0.000,0.000,0,0.000,0.000,0.000,0,0,4,0,0
PPG,1,94701,3789591552,25,489,503,0.000,0.000,0.000,0,0,0,0,0.00,nan,4,3,1,nan,3,3,24,1,1,13,13,0,0,0,3790781308,0.04102,0.00781,0.94922,0.95014,-0.00532,-0.00108,-0.00087,0.00550,0.95014,0.00619,0.00696,3,12132,0,6236,0.00000,0.00000,0.00000,0,0,nan,0,0,0,2600,187491,0,0,0.000,0.000,0.000,0,0.000,0.000,0.000,0,0,4,0,0
PPG,1,94702,3789631552,25,498,508,0.000,0.000,0.000,0,0,0,0,0.00,nan,4,3,1,nan,3,3,24,1,1,14,14,0,0,0,3790822475,0.03906,0.00732,0.95361,0.95444,-0.00479,-0.00108,-0.00114,0.00504,0.95444,0.00203,0.00667,3,12131,0,6236,0.00000,0.00000,0.00000,0,0,nan,0,0,0,4294,187491,0,0,0.000,0.000,0.000,0,0.000,0.000,0.000,0,0,4,0,0
PPG,1,94703,3789671552,25,502,510,0.000,0.000,0.000,0,0,0,0,0.00,nan,4,3,1,nan,3,3,24,1,1,15,15,0,0,0,3790860978,0.03589,0.00537,0.95239,0.95308,-0.00425,-0.00081,-0.00141,0.00455,0.95543,0.00411,0.00558,3,12115,0,6236,0.00000,0.00000,0.00000,0,0,nan,0,0,0,2599,187491,0,0,0.000,0.000,0.000,0,0.000,0.000,0.000,0,0,4,0,0
PPG,1,94704,3789711552,25,497,511,0.000,0.000,0.000,0,0,0,0,0.00,nan,4,3,1,nan,3,3,24,1,1,16,16,0,0,0,3790902103,0.04150,0.00708,0.95117,0.95210,-0.00638,0.00025,-0.00167,0.00660,0.95453,0.00532,0.00660,3,12125,0,6236,0.00000,0.00000,0.00000,0,0,nan,0,0,0,4299,187491,0,0,0.000,0.000,0.000,0,0.000,0.000,0.000,0,0,4,0,0
PPG,1,94705,3789751552,25,482,511,0.000,0.000,0.000,0,0,0,0,0.00,nan,4,3,1,nan,3,3,24,1,1,17,17,0,0,0,3790940979,0.03613,0.00684,0.95215,0.95286,-0.00479,-0.00055,-0.00221,0.00530,0.95286,0.00560,0.00626,3,12255,0,6236,0.00000,0.00000,0.00000,0,0,nan,0,0,0,2599,187491,0,0,0.000,0.000,0.000,0,0.000,0.000,0.000,0,0,4,0,0
PPG,1,94706,3789791552,26,495,523,0.000,0.000,0.000,0,0,0,0,0.00,nan,4,3,1,nan,3,3,24,1,1,18,18,0,0,0,3790982138,0.03735,0.00659,0.95361,0.95437,-0.00585,-0.00081,-0.00141,0.00607,0.95519,0.00364,0.00607,3,12110,0,6236,0.00000,0.00000,0.00000,0,0,nan,0,0,0,4300,187491,0,0,0.000,0.000,0.000,0,0.000,0.000,0.000,0,0,4,0,0
PPG,1,94707,3789831552,25,489,504,0.000,0.000,0.000,0,0,0,0,0.00,nan,4,3,1,nan,3,3,24,1,1,19,19,0,0,0,3791020684,0.04199,0.01025,0.95117,0.95215,-0.00532,-0.00161,-0.00141,0.00573,0.95215,0.00395,0.00648,3,12165,0,6236,0.00000,0.00000,0.00000,0,0,nan,0,0,0,2605,187491,0,0,0.000,0.000,0.000,0,0.000,0.000,0.000,0,0,4,0,0
PPG,1,94708,3789871552,25,481,495,0.000,0.000,0.000,0,0,0,0,0.00,nan,4,3,1,nan,3,3,24,1,1,20,20,0,0,0,3791061912,0.03931,0.00244,0.94922,0.95004,-0.00505,-0.00108,-0.00221,0.00562,0.95120,0.00211,0.00611,3,12113,0,6236,0.00000,0.00000,0.00000,0,0,nan,0,0,0,4297,187491,0,0,0.000,0.000,0.000,0,0.000,0.000,0.000,0,0,4,0,0
PPG,1,94709,3789911552,25,499,518,0.000,0.000,0.000,0,0,0,0,0.00,nan,4,3,1,nan,3,3,24,1,1,21,21,0,0,0,3791100590,0.03662,0.00781,0.95313,0.95386,-0.00585,-0.00055,-0.00194,0.00619,0.95844,0.00580,0.00635,3,12131,0,6236,0.00000,0.00000,0.00000,0,0,nan,0,0,0,2604,187491,0,0,0.000,0.000,0.000,0,0.000,0.000,0.000,0,0,4,0,0
PPG,1,94710,3789951552,34,481,503,0.000,0.000,0.000,0,0,0,0,0.00,nan,4,3,1,nan,3,3,24,1,1,22,22,0,0,0,3791142067,0.04004,0.00366,0.94897,0.94983,-0.00612,-0.00188,-0.00167,0.00661,0.95076,0.00348,0.00669,3,12270,0,6236,0.00000,0.00000,0.00000,0,0,nan,0,0,0,4328,187491,0,0,0.000,0.000,0.000,0,0.000,0.000,0.000,0,0,4,0,0
PPG,1,94711,3789991552,26,491,520,0.000,0.000,0.000,0,0,0,0,0.00,nan,4,3,1,nan,3,3,24,1,1,23,23,0,0,0,3791180957,0.03784,0.01001,0.95142,0.95222,-0.00558,-0.00028,-0.00167,0.00584,0.95493,0.00320,0.00613,3,12264,0,6236,0.00000,0.00000,0.00000,0,0,nan,0,0,0,2630,187491,0,0,0.000,0.000,0.000,0,0.000,0.000,0.000,0,0,4,0,0
PPG,1,94712,3790031552,25,504,506,0.000,0.000,0.000,0,0,0,0,0.00,nan,4,3,1,nan,3,3,24,1,1,24,24,0,0,0,3791222546,0.03638,0.00366,0.95435,0.95505,-0.00612,-0.00055,-0.00167,0.00637,0.95541,0.00160,0.00637,3,12298,0,6236,0.00000,0.00000,0.00000,0,0,nan,0,0,0,4316,187491,0,0,0.000,0.000,0.000,0,0.000,0.000,0.000,0,0,4,0,0
PPG,1,94713,3790071552,36,493,507,0.000,0.000,0.000,0,0,0,0,0.00,nan,4,3,1,nan,3,3,24,1,1,25,25,0,0,0,3791261429,0.04297,0.00537,0.95483,0.95582,-0.00638,-0.00081,-0.00167,0.00665,0.95582,0.00752,0.00682,3,12253,0,6236,0.00000,0.00000,0.00000,0,0,nan,0,0,0,2635,187491,0,0,0.000,0.000,0.000,0,0.000,0.000,0.000,0,0,4,0,0
PPG,1,94714,3790111552,30,488,503,0.000,0.000,0.000,0,0,0,0,0.00,nan,4,3,1,nan,3,3,24,1,1,26,26,0,0,0,3791302932,0.04004,0.00684,0.94556,0.94643,-0.00585,-0.00001,-0.00247,0.00635,0.95412,0.00769,0.00697,3,12245,0,6236,0.00000,0.00000,0.00000,0,0,nan,0,0,0,4322,187491,0,0,0.000,0.000,0.000,0,0.000,0.000,0.000,0,0,4,0,0
PPG,1,94715,3790151552,25,492,501,0.000,0.000,0.000,0,0,0,0,0.00,nan,4,3,1,nan,3,3,24,1,1,27,27,0,0,0,3791341843,0.03491,0.00781,0.95239,0.95306,-0.00532,-0.00081,-0.00194,0.00572,0.95789,0.01548,0.00642,3,12247,0,6236,0.00000,0.00000,0.00000,0,0,nan,0,0,0,4340,187491,0,0,0.000,0.000,0.000,0,0.000,0.000,0.000,0,0,4,0,0
PPG,1,94716,3790191552,26,489,506,0.000,0.000,0.000,0,0,0,0,0.00,nan,4,3,1,nan,3,3,24,1,1,28,28,0,0,0,3791380694,0.03931,0.00635,0.94873,0.94957,-0.00479,-0.00108,-0.00247,0.00549,0.95604,0.00566,0.00622,3,12235,0,6236,0.00000,0.00000,0.00000,0,0,nan,0,0,0,2641,187491,0,0,0.000,0.000,0.000,0,0.000,0.000,0.000,0,0,4,0,0
PPG,1,94717,3790231552,25,490,505,0.000,0.000,0.000,0,0,0,0,0.00,nan,4,3,1,nan,3,3,24,1,1,29,29,0,0,0,3791422249,0.03931,0.00244,0.94800,0.94882,-0.00532,0.00079,-0.00061,0.00541,0.95191,0.00441,0.00661,3,12280,0,6236,0.00000,0.00000,0.00000,0,0,nan,0,0,0,4366,187491,0,0,0.000,0.000,0.000,0,0.000,0.000,0.000,0,0,4,0,0
PPG,1,94718,3790271552,25,492,510,0.000,0.000,0.000,0,0,0,0,0.00,nan,4,3,1,nan,3,3,24,1,1,30,30,0,0,0,3791461183,0.03613,0.00659,0.95020,0.95090,-0.00638,0.00025,-0.00007,0.00639,0.95702,0.00821,0.00639,3,12257,0,6236,0.00000,0.00000,0.00000,0,0,nan,0,0,0,2625,187491,0,0,0.000,0.000,0.000,0,0.000,0.000,0.000,0,0,4,0,0
PPG,1,94719,3790311552,26,488,512,0.000,0.000,0.000,0,0,0,0,0.00,nan,4,3,1,nan,3,3,24,1,1,31,31,0,0,0,3791502665,0.04102,0.00830,0.95239,0.95331,-0.00665,-0.00001,-0.00221,0.00701,0.95568,0.00577,0.00701,3,12257,0,6236,0.00000,0.00000,0.00000,0,0,nan,0,0,0,4334,187491,0,0,0.000,0.000,0.000,0,0.000,0.000,0.000,0,0,4,0,0
PPG,1,94720,3790351552,25,499,517,0.000,0.000,0.000,0,0,0,0,0.00,nan,4,3,1,nan,3,3,24,1,1,0,0,0,0,0,3791541583,0.03955,0.00757,0.95386,0.95471,-0.00638,-0.00055,-0.00087,0.00647,0.95951,0.01030,0.00680,3,12245,0,6236,0.00000,0.00000,0.00000,0,0,nan,0,0,0,4343,187491,0,0,0.000,0.000,0.000,0,0.000,0.000,0.000,0,0,4,0,0
PPG,1,94721,3790391552,26,502,503,0.000,0.000,0.000,0,0,0,0,0.00,nan,4,3,1,nan,3,3,24,1,1,1,1,0,0,0,3791580216,0.03711,0.00830,0.95190,0.95266,-0.00612,0.00025,-0.00194,0.00642,0.95639,0.00373,0.00642,2,12290,0,6237,0.00000,0.00000,0.00000,0,0,nan,0,0,0,2626,187491,0,0,0.000,0.000,0.000,0,0.000,0.000,0.000,0,0,4,0,0
PPG,1,94722,3790431552,28,495,496,0.000,0.000,0.000,0,0,0,0,0.00,nan,4,3,1,nan,3,3,24,1,1,2,2,0,0,0,3791621676,0.03857,0.00635,0.95581,0.95661,-0.00558,-0.00028,-0.00247,0.00611,0.95661,0.00317,0.00655,3,12220,0,6237,0.00000,0.00000,0.00000,0,0,nan,0,0,0,4345,187491,0,0,0.000,0.000,0.000,0,0.000,0.000,0.000,0,0,4,0,0
PPG,1,94723,3790471552,26,498,512,0.000,0.000,0.000,0,0,0,0,0.00,nan,4,3,1,nan,3,3,24,1,1,3,3,0,0,0,3791660669,0.03662,0.00732,0.95703,0.95776,-0.00532,-0.00108,-0.00221,0.00586,0.95776,0.00517,0.00586,3,12234,0,6237,0.00000,0.00000,0.00000,0,0,nan,0,0,0,2643,187491,0,0,0.000,0.000,0.000,0,0.000,0.000,0.000,0,0,4,0,0
PPG,1,94724,3790511552,25,496,508,0.000,0.000,0.000,0,0,0,0,0.00,nan,4,3,1,nan,3,3,24,1,1,4,4,0,0,0,3791702109,0.03979,0.00244,0.95264,0.95347,-0.00612,-0.00001,-0.00141,0.00628,0.95347,0.00533,0.00739,3,12240,0,6237,0.00000,0.00000,0.00000,0,0,nan,0,0,0,4330,187491,0,0,0.000,0.000,0.000,0,0.000,0.000,0.000,0,0,4,0,0
PPG,1,94725,3790551552,25,495,507,0.000,0.000,0.000,0,0,0,0,0.00,nan,4,3,1,nan,3,3,24,1,1,5,5,0,0,0,3791740946,0.03613,0.00708,0.94824,0.94896,-0.00558,-0.00028,-0.00087,0.00566,0.95831,0.00637,0.00647,3,12236,0,6237,0.00000,0.00000,0.00000,0,0,nan,0,0,0,2596,187491,0,0,0.000,0.000,0.000,0,0.000,0.000,0.000,0,0,4,0,0
PPG,1,94726,3790591552,25,496,506,0.000,0.000,0.000,0,0,0,0,0.00,nan,4,3,1,nan,3,3,24,1,1,6,6,0,0,0,3791782218,0.03711,0.00610,0.95288,0.95362,-0.00558,0.00025,-0.00034,0.00560,0.95436,0.00541,0.00655,3,12211,0,6237,0.00000,0.00000,0.00000,0,0,nan,0,0,0,4391,187491,0,0,0.000,0.000,0.000,0,0.000,0.000,0.000,0,0,4,0,0
PPG,1,94727,3790631552,25,493,513,0.000,0.000,0.000,0,0,0,0,0.00,nan,4,3,1,nan,3,3,24,1,1,7,7,0,0,0,3791820832,0.04004,0.00415,0.95361,0.95446,-0.00558,-0.00055,-0.00167,0.00586,0.95542,0.00106,0.00586,3,12119,0,6237,0.00000,0.00000,0.00000,0,0,nan,0,0,0,2599,187491,0,0,0.000,0.000,0.000,0,0.000,0.000,0.000,0,0,4,0,0
PPG,1,94728,3790671552,25,482,497,0.000,0.000,0.000,0,0,0,0,0.00,nan,4,3,1,nan,3,3,24,1,1,8,8,0,0,0,3791861969,0.04224,0.00781,0.94263,0.94361,-0.00479,-0.00055,-0.00141,0.00502,0.95348,0.00988,0.00535,3,12113,0,6237,0.00000,0.00000,0.00000,0,0,nan,0,0,0,4297,187491,0,0,0.000,0.000,0.000,0,0.000,0.000,0.000,0,0,4,0,0
PPG,1,94729,3790711552,25,492,497,0.000,0.000,0.000,0,0,0,0,0.00,nan,4,3,1,nan,3,3,24,1,1,9,9,0,0,0,3791900494,0.03882,0.00562,0.94751,0.94832,-0.00665,-0.00161,-0.00194,0.00711,0.95173,0.00813,0.00724,3,12122,0,6237,0.00000,0.00000,0.00000,0,0,nan,0,0,0,2598,187491,0,0,0.000,0.000,0.000,0,0.000,0.000,0.000,0,0,4,0,0
PPG,1,94730,3790751552,26,499,505,0.000,0.000,0.000,0,0,0,0,0.00,nan,4,3,1,nan,3,3,24,1,1,10,10,0,0,0,3791941648,0.03809,0.00513,0.94897,0.94975,-0.00532,-0.00108,-0.00141,0.00561,0.95152,0.00319,0.00639,3,12161,0,6237,0.00000,0.00000,0.00000,0,0,nan,0,0,0,2620,187491,0,0,0.000,0.000,0.000,0,0.000,0.000,0.000,0,0,4,0,0
PPG,1,94731,3790791552,25,499,512,0.000,0.000,0.000,0,0,0,0,0.00,nan,4,3,1,nan,3,3,24,1,1,11,11,0,0,0,3791982797,0.03564,0.00244,0.95117,0.95184,-0.00532,-0.00055,-0.00221,0.00578,0.95526,0.00551,0.00611,3,12132,0,6237,0.00000,0.00000,0.00000,0,0,nan,0,0,0,4317,187491,0,0,0.000,0.000,0.000,0,0.000,0.000,0.000,0,0,4,0,0
PPG,1,94732,3790831552,25,502,514,0.000,0.000,0.000,0,0,0,0,0.00,nan,4,3,1,nan,3,3,24,1,1,12,12,0,0,0,3792021368,0.04126,0.00562,0.95288,0.95379,-0.00585,-0.00001,-0.00167,0.00609,0.95479,0.00258,0.00712,3,12127,0,6237,0.00000,0.00000,0.00000,0,0,nan,0,0,0,2600,187491,0,0,0.000,0.000,0.000,0,0.000,0.000,0.000,0,0,4,0,0
PPG,1,94733,3790871552,25,474,506,0.000,0.000,0.000,0,0,0,0,0.00,nan,4,3,1,nan,3,3,24,1,1,13,13,0,0,0,3792062475,0.03760,0.00439,0.95239,0.95314,-0.00612,-0.00055,-0.00247,0.00662,0.95314,0.00254,0.00695,3,12115,0,6237,0.00000,0.00000,0.00000,0,0,nan,0,0,0,4297,187491,0,0,0.000,0.000,0.000,0,0.000,0.000,0.000,0,0,4,0,0
PPG,1,94734,3790911552,25,484,484,0.000,0.000,0.000,0,0,0,0,0.00,nan,4,3,1,nan,3,3,24,1,1,14,14,0,0,0,3792100991,0.04053,0.00879,0.95093,0.95183,-0.00665,-0.00108,-0.00194,0.00701,0.95347,0.00411,0.00701,3,12115,0,6237,0.00000,0.00000,0.00000,0,0,nan,0,0,0,2599,187491,0,0,0.000,0.000,0.000,0,0.000,0.000,0.000,0,0,4,0,0
PPG,1,94735,3790951552,25,488,494,0.000,0.000,0.000,0,0,0,0,0.00,nan,4,3,1,nan,3,3,24,1,1,15,15,0,0,0,3792142172,0.04028,0.00708,0.95313,0.95400,-0.00612,-0.00001,-0.00167,0.00634,0.95400,0.00225,0.00654,3,12193,0,6237,0.00000,0.00000,0.00000,0,0,nan,0,0,0,4303,187491,0,0,0.000,0.000,0.000,0,0.000,0.000,0.000,0,0,4,0,0
PPG,1,94736,3790991552,25,496,508,0.000,0.000,0.000,0,0,0,0,0.00,nan,4,3,1,nan,3,3,24,1,1,16,16,0,0,0,3792180728,0.04028,0.00781,0.94409,0.94498,-0.00638,-0.00001,-0.00114,0.00648,0.95358,0.00859,0.00648,3,12130,0,6237,0.00000,0.00000,0.00000,0,0,nan,0,0,0,2608,187491,0,0,0.000,0.000,0.000,0,0.000,0.000,0.000,0,0,4,0,0
PPG,1,94737,3791031552,25,500,509,0.000,0.000,0.000,0,0,0,0,0.00,nan,4,3,1,nan,3,3,24,1,1,17,17,0,0,0,3792221857,0.03955,0.00488,0.94995,0.95079,-0.00612,-0.00108,-0.00141,0.00637,0.95306,0.00807,0.00665,3,12115,0,6237,0.00000,0.00000,0.00000,0,0,nan,0,0,0,4301,187491,0,0,0.000,0.000,0.000,0,0.000,0.000,0.000,0,0,4,0,0
PPG,1,94738,3791071552,25,496,516,0.000,0.000,0.000,0,0,0,0,0.00,nan,4,3,1,nan,3,3,24,1,1,18,18,0,0,0,3792260423,0.03638,0.00610,0.94971,0.95042,-0.00558,-0.00081,-0.00194,0.00597,0.96034,0.00955,0.00623,3,12122,0,6237,0.00000,0.00000,0.00000,0,0,nan,0,0,0,2597,187491,0,0,0.000,0.000,0.000,0,0.000,0.000,0.000,0,0,4,0,0
PPG,1,94739,3791111552,28,487,494,0.000,0.000,0.000,0,0,0,0,0.00,nan,4,3,1,nan,3,3,24,1,1,19,19,0,0,0,3792301527,0.03687,0.00781,0.95215,0.95289,-0.00505,0.00079,-0.00167,0.00538,0.95428,0.00283,0.00680,3,12106,0,6237,0.00000,0.00000,0.00000,0,0,nan,0,0,0,2599,187491,0,0,0.000,0.000,0.000,0,0.000,0.000,0.000,0,0,4,0,0
PPG,1,94740,3791151552,37,490,491,0.000,0.000,0.000,0,0,0,0,0.00,nan,4,3,1,nan,3,3,24,1,1,20,20,0,0,0,3792342648,0.03784,0.00854,0.94824,0.94904,-0.00558,0.00025,-0.00194,0.00592,0.95076,0.00213,0.00677,3,12139,0,6237,0.00000,0.00000,0.00000,0,0,nan,0,0,0,4324,187491,0,0,0.000,0.000,0.000,0,0.000,0.000,0.000,0,0,4,0,0
PPG,1,94741,3791191552,25,489,501,0.000,0.000,0.000,0,0,0,0,0.00,nan,4,3,1,nan,3,3,24,1,1,21,21,0,0,0,3792381669,0.04102,0.00732,0.95190,0.95282,-0.00532,-0.00081,-0.00167,0.00563,0.95519,0.00616,0.00671,3,12148,0,6237,0.00000,0.00000,0.00000,0,0,nan,0,0,0,2604,187491,0,0,0.000,0.000,0.000,0,0.000,0.000,0.000,0,0,4,0,0
PPG,1,94742,3791231552,26,492,503,0.000,0.000,0.000,0,0,0,0,0.00,nan,4,3,1,nan,3,3,24,1,1,22,22,0,0,0,3792422857,0.04126,0.00342,0.94922,0.95012,-0.00638,-0.00055,-0.00087,0.00647,0.95893,0.00881,0.00647,3,12111,0,6237,0.00000,0.00000,0.00000,0,0,nan,0,0,0,4301,187491,0,0,0.000,0.000,0.000,0,0.000,0.000,0.000,0,0,4,0,0
PPG,1,94743,3791271552,37,503,506,0.000,0.000,0.000,0,0,0,0,0.00,nan,4,3,1,nan,3,3,24,1,1,23,23,0,0,0,3792461448,0.04077,0.00586,0.95239,0.95328,-0.00692,-0.00135,-0.00221,0.00738,0.95328,0.00671,0.00738,3,12150,0,6237,0.00000,0.00000,0.00000,0,0,nan,0,0,0,2603,187491,0,0,0.000,0.000,0.000,0,0.000,0.000,0.000,0,0,4,0,0
PPG,1,94744,3791311552,37,490,514,0.000,0.000,0.000,0,0,0,0,0.00,nan,4,3,1,nan,3,3,24,1,1,24,24,0,0,0,3792502666,0.03491,0.00684,0.94775,0.94842,-0.00638,-0.00081,-0.00114,0.00654,0.95628,0.00786,0.00654,3,12111,0,6237,0.00000,0.00000,0.00000,0,0,nan,0,0,0,4302,187491,0,0,0.000,0.000,0.000,0,0.000,0.000,0.000,0,0,4,0,0
PPG,1,94745,3791351552,26,495,509,0.000,0.000,0.000,0,0,0,0,0.00,nan,4,3,1,nan,3,3,24,1,1,25,25,0,0,0,3792541373,0.03735,0.00513,0.95313,0.95387,-0.00638,-0.00188,-0.00141,0.00680,0.95668,0.00826,0.00680,3,12121,0,6237,0.00000,0.00000,0.00000,0,0,nan,0,0,0,2598,187491,0,0,0.000,0.000,0.000,0,0.000,0.000,0.000,0,0,4,0,0
PPG,1,94746,3791391552,25,503,520,0.000,0.000,0.000,0,0,0,0,0.00,nan,4,3,1,nan,3,3,24,1,1,26,26,0,0,0,3792583415,0.03589,0.00635,0.94824,0.94894,-0.00558,-0.00188,-0.00141,0.00606,0.95410,0.00516,0.00632,2,12317,0,6238,0.00000,0.00000,0.00000,0,0,nan,0,0,0,4335,187491,0,0,0.000,0.000,0.000,0,0.000,0.000,0.000,0,0,4,0,0
PPG,1,94747,3791431552,26,499,511,0.000,0.000,0.000,0,0,0,0,0.00,nan,4,3,1,nan,3,3,24,1,1,27,27,0,0,0,3792622339,0.04150,0.00513,0.95654,0.95746,-0.00638,-0.00055,-0.00194,0.00669,0.95746,0.00376,0.00721,3,12272,0,6238,0.00000,0.00000,0.00000,0,0,nan,0,0,0,4343,187491,0,0,0.000,0.000,0.000,0,0.000,0.000,0.000,0,0,4,0,0
PPG,1,94748,3791471552,26,500,509,0.000,0.000,0.000,0,0,0,0,0.00,nan,4,3,1,nan,3,3,24,1,1,28,28,0,0,0,3792661240,0.03394,0.00586,0.95117,0.95180,-0.00585,-0.00028,-0.00141,0.00602,0.95180,0.00593,0.00708,3,12283,0,6238,0.00000,0.00000,0.00000,0,0,nan,0,0,0,2619,187491,0,0,0.000,0.000,0.000,0,0.000,0.000,0.000,0,0,4,0,0
PPG,1,94749,3791511552,25,488,501,0.000,0.000,0.000,0,0,0,0,0.00,nan,4,3,1,nan,3,3,24,1,1,29,29,0,0,0,3792702713,0.04150,0.00806,0.95142,0.95235,-0.00585,0.00025,-0.00221,0.00626,0.95235,0.00156,0.00695,3,12256,0,6238,0.00000,0.00000,0.00000,0,0,nan,0,0,0,4333,187491,0,0,0.000,0.000,0.000,0,0.000,0.000,0.000,0,0,4,0,0
PPG,1,94750,3791551552,26,487,502,0.000,0.000,0.000,0,0,0,0,0.00,nan,4,3,1,nan,3,3,24,1,1,30,30,0,0,0,3792741572,0.03516,0.01001,0.95190,0.95261,-0.00558,0.00079,-0.00087,0.00571,0.95544,0.00441,0.00571,3,12214,0,6238,0.00000,0.00000,0.00000,0,0,nan,0,0,0,2625,187491,0,0,0.000,0.000,0.000,0,0.000,0.000,0.000,0,0,4,0,0
PPG,1,94751,3791591552,26,490,519,0.000,0.000,0.000,0,0,0,0,0.00,nan,4,3,1,nan,3,3,24,1,1,31,31,0,0,0,3792783103,0.04199,0.00830,0.94580,0.94677,-0.00612,0.00025,-0.00141,0.00628,0.95021,0.00328,0.00628,3,12261,0,6238,0.00000,0.00000,0.00000,0,0,nan,0,0,0,4340,187491,0,0,0.000,0.000,0.000,0,0.000,0.000,0.000,0,0,4,0,0
PPG,1,94752,3791631552,25,500,505,0.000,0.000,0.000,0,0,0,0,0.00,nan,4,3,1,nan,3,3,24,1,1,0,0,0,0,0,3792821966,0.04004,0.00732,0.95264,0.95351,-0.00585,-0.00028,-0.00274,0.00647,0.95706,0.00614,0.00647,3,12254,0,6238,0.00000,0.00000,0.00000,0,0,nan,0,0,0,4315,187491,0,0,0.000,0.000,0.000,0,0.000,0.000,0.000,0,0,4,0,0
PPG,1,94753,3791671552,27,491,510,0.000,0.000,0.000,0,0,0,0,0.00,nan,4,3,1,nan,3,3,24,1,1,1,1,0,0,0,3792860895,0.03882,0.00391,0.95288,0.95368,-0.00585,-0.00108,-0.00167,0.00618,0.95368,0.00231,0.00685,3,12308,0,6238,0.00000,0.00000,0.00000,0,0,nan,0,0,0,2631,187491,0,0,0.000,0.000,0.000,0,0.000,0.000,0.000,0,0,4,0,0
PPG,1,94754,3791711552,28,498,511,0.000,0.000,0.000,0,0,0,0,0.00,nan,4,3,1,nan,3,3,24,1,1,2,2,0,0,0,3792902336,0.04102,0.00635,0.95923,0.96013,-0.00532,-0.00001,-0.00141,0.00550,0.96013,0.00536,0.00676,3,12196,0,6238,0.00000,0.00000,0.00000,0,0,nan,0,0,0,4323,187491,0,0,0.000,0.000,0.000,0,0.000,0.000,0.000,0,0,4,0,0
PPG,1,94755,3791751552,25,501,504,0.000,0.000,0.000,0,0,0,0,0.00,nan,4,3,1,nan,3,3,24,1,1,3,3,0,0,0,3792941173,0.03638,0.00391,0.95386,0.95456,-0.00505,-0.00001,-0.00194,0.00541,0.95456,0.00737,0.00571,3,12232,0,6238,0.00000,0.00000,0.00000,0,0,nan,0,0,0,2634,187491,0,0,0.000,0.000,0.000,0,0.000,0.000,0.000,0,0,4,0,0
PPG,1,94756,3791791552,26,487,503,0.000,0.000,0.000,0,0,0,0,0.00,nan,4,3,1,nan,3,3,24,1,1,4,4,0,0,0,3792982667,0.03638,0.00977,0.95288,0.95363,-0.00558,-0.00055,-0.00247,0.00613,0.95469,0.00297,0.00613,3,12237,0,6238,0.00000,0.00000,0.00000,0,0,nan,0,0,0,4326,187491,0,0,0.000,0.000,0.000,0,0.000,0.000,0.000,0,0,4,0,0
PPG,1,94757,3791831552,25,493,508,0.000,0.000,0.000,0,0,0,0,0.00,nan,4,3,1,nan,3,3,24,1,1,5,5,0,0,0,3793021516,0.04028,0.00635,0.95190,0.95278,-0.00479,0.00025,-0.00114,0.00493,0.95513,0.00235,0.00707,3,12245,0,6238,0.00000,0.00000,0.00000,0,0,nan,0,0,0,2615,187491,0,0,0.000,0.000,0.000,0,0.000,0.000,0.000,0,0,4,0,0
PPG,1,94758,3791871552,32,487,509,0.000,0.000,0.000,0,0,0,0,0.00,nan,4,3,1,nan,3,3,24,1,1,6,6,0,0,0,3793062943,0.03809,0.00537,0.95288,0.95366,-0.00505,-0.00215,-0.00141,0.00567,0.95366,0.00605,0.00655,3,12250,0,6238,0.00000,0.00000,0.00000,0,0,nan,0,0,0,4334,187491,0,0,0.000,0.000,0.000,0,0.000,0.000,0.000,0,0,4,0,0
PPG,1,94759,3791911552,25,498,507,0.000,0.000,0.000,0,0,0,0,0.00,nan,4,3,1,nan,3,3,24,1,1,7,7,0,0,0,3793101801,0.03857,0.00391,0.95386,0.95465,-0.00612,-0.00188,-0.00221,0.00677,0.95721,0.00378,0.00691,3,12234,0,6238,0.00000,0.00000,0.00000,0,0,nan,0,0,0,2630,187491,0,0,0.000,0.000,0.000,0,0.000,0.000,0.000,0,0,4,0,0
PPG,1,94760,3791951552,25,490,506,0.000,0.000,0.000,0,0,0,0,0.00,nan,4,3,1,nan,3,3,24,1,1,8,8,0,0,0,3793143254,0.03833,0.00781,0.95435,0.95515,-0.00612,-0.00055,-0.00114,0.00625,0.95796,0.00282,0.00637,3,12238,0,6238,0.00000,0.00000,0.00000,0,0,nan,0,0,0,4338,187491,0,0,0.000,0.000,0.000,0,0.000,0.000,0.000,0,0,4,0,0
PPG,1,94761,3791991552,25,493,509,0.000,0.000,0.000,0,0,0,0,0.00,nan,4,3,1,nan,3,3,24,1,1,9,9,0,0,0,3793182103,0.03931,0.00610,0.94824,0.94908,-0.00532,-0.00108,-0.00141,0.00561,0.95329,0.00558,0.00586,3,12137,0,6238,0.00000,0.00000,0.00000,0,0,nan,0,0,0,4298,187491,0,0,0.000,0.000,0.000,0,0.000,0.000,0.000,0,0,4,0,0
PPG,1,94762,3792031552,25,488,505,0.000,0.000,0.000,0,0,0,0,0.00,nan,4,3,1,nan,3,3,24,1,1,10,10,0,0,0,3793220818,0.04199,0.00757,0.94995,0.95091,-0.00558,-0.00001,-0.00141,0.00576,0.95091,0.00513,0.00647,3,12125,0,6238,0.00000,0.00000,0.00000,0,0,nan,0,0,0,2600,187491,0,0,0.000,0.000,0.000,0,0.000,0.000,0.000,0,0,4,0,0
PPG,1,94763,3792071552,25,503,502,0.000,0.000,0.000,0,0,0,0,0.00,nan,4,3,1,nan,3,3,24,1,1,11,11,0,0,0,3793261977,0.04077,0.00830,0.94336,0.94428,-0.00612,-0.00028,-0.00114,0.00623,0.95673,0.01245,0.00623,3,12129,0,6238,0.00000,0.00000,0.00000,0,0,nan,0,0,0,2617,187491,0,0,0.000,0.000,0.000,0,0.000,0.000,0.000,0,0,4,0,0
PPG,1,94764,3792111552,26,501,519,0.000,0.000,0.000,0,0,0,0,0.00,nan,4,3,1,nan,3,3,24,1,1,12,12,0,0,0,3793303156,0.03516,0.00659,0.94849,0.94916,-0.00532,0.00079,-0.00221,0.00581,0.95536,0.01108,0.00642,3,12120,0,6238,0.00000,0.00000,0.00000,0,0,nan,0,0,0,4303,187491,0,0,0.000,0.000,0.000,0,0.000,0.000,0.000,0,0,4,0,0
PPG,1,94765,3792151552,25,489,512,0.000,0.000,0.000,0,0,0,0,0.00,nan,4,3,1,nan,3,3,24,1,1,13,13,0,0,0,3793341669,0.03589,0.00977,0.94580,0.94653,-0.00612,-0.00081,-0.00061,0.00620,0.95286,0.00370,0.00620,3,12113,0,6238,0.00000,0.00000,0.00000,0,0,nan,0,0,0,2604,187491,0,0,0.000,0.000,0.000,0,0.000,0.000,0.000,0,0,4,0,0
PPG,1,94766,3792191552,25,473,500,0.000,0.000,0.000,0,0,0,0,0.00,nan,4,3,1,nan,3,3,24,1,1,14,14,0,0,0,3793382833,0.03540,0.00732,0.94995,0.95064,-0.00532,-0.00108,-0.00114,0.00554,0.95064,0.00183,0.00606,3,12118,0,6238,0.00000,0.00000,0.00000,0,0,nan,0,0,0,4302,187491,0,0,0.000,0.000,0.000,0,0.000,0.000,0.000,0,0,4,0,0
PPG,1,94767,3792231552,25,492,502,0.000,0.000,0.000,0,0,0,0,0.00,nan,4,3,1,nan,3,3,24,1,1,15,15,0,0,0,3793421372,0.04077,0.00659,0.94849,0.94939,-0.00558,0.00025,-0.00167,0.00583,0.95042,0.00199,0.00661,3,12124,0,6238,0.00000,0.00000,0.00000,0,0,nan,0,0,0,2597,187491,0,0,0.000,0.000,0.000,0,0.000,0.000,0.000,0,0,4,0,0
PPG,1,94768,3792271552,26,495,499,0.000,0.000,0.000,0,0,0,0,0.00,nan,4,3,1,nan,3,3,24,1,1,16,16,0,0,0,3793462518,0.03931,0.00366,0.94141,0.94223,-0.00612,-0.00001,-0.00167,0.00634,0.95394,0.00617,0.00634,3,12112,0,6238,0.00000,0.00000,0.00000,0,0,nan,0,0,0,4297,187491,0,0,0.000,0.000,0.000,0,0.000,0.000,0.000,0,0,4,0,0
PPG,1,94769,3792311552,25,505,514,0.000,0.000,0.000,0,0,0,0,0.00,nan,4,3,1,nan,3,3,24,1,1,17,17,0,0,0,3793501092,0.04272,0.00513,0.94849,0.94946,-0.00505,-0.00028,-0.00247,0.00563,0.95348,0.01115,0.00660,3,12130,0,6238,0.00000,0.00000,0.00000,0,0,nan,0,0,0,2597,187491,0,0,0.000,0.000,0.000,0,0.000,0.000,0.000,0,0,4,0,0
PPG,1,94770,3792351552,25,492,515,0.000,0.000,0.000,0,0,0,0,0.00,nan,4,3,1,nan,3,3,24,1,1,18,18,0,0,0,3793542242,0.03882,0.00635,0.95557,0.95638,-0.00585,-0.00161,-0.00061,0.00610,0.95638,0.00419,0.00683,3,12131,0,6238,0.00000,0.00000,0.00000,0,0,nan,0,0,0,4295,187491,0,0,0.000,0.000,0.000,0,0.000,0.000,0.000,0,0,4,0,0
PPG,1,94771,3792391552,24,475,503,0.000,0.000,0.000,0,0,0,0,0.00,nan,4,3,1,nan,3,3,24,1,1,19,19,0,0,0,3793585014,0.03735,0.00586,0.95288,0.95363,-0.00612,-0.00135,-0.00141,0.00642,0.95370,0.00603,0.00670,3,12181,0,6238,0.00000,0.00000,0.00000,0,0,nan,0,0,0,2586,187491,0,0,0.000,0.000,0.000,0,0.000,0.000,0.000,0,0,4,0,0
PPG,1,94772,3792431552,25,493,503,0.000,0.000,0.000,0,0,0,0,0.00,nan,4,3,1,nan,3,3,24,1,1,20,20,0,0,0,3793623575,0.03955,0.00854,0.95605,0.95691,-0.00558,-0.00135,-0.00167,0.00598,0.95691,0.00400,0.00623,3,12127,0,6238,0.00000,0.00000,0.00000,0,0,nan,0,0,0,4298,187491,0,0,0.000,0.000,0.000,0,0.000,0.000,0.000,0,0,4,0,0
PPG,1,94773,3792471552,28,498,500,0.000,0.000,0.000,0,0,0,0,0.00,nan,4,3,1,nan,3,3,24,1,1,21,21,0,0,0,3793662123,0.04053,0.00220,0.95068,0.95155,-0.00638,0.00025,-0.00167,0.00660,0.95212,0.00760,0.00706,3,12132,0,6238,0.00000,0.00000,0.00000,0,0,nan,0,0,0,4297,187491,0,0,0.000,0.000,0.000,0,0.000,0.000,0.000,0,0,4,0,0
PPG,1,94774,3792511552,25,497,513,0.000,0.000,0.000,0,0,0,0,0.00,nan,4,3,1,nan,3,3,24,1,1,22,22,0,0,0,3793700674,0.03687,0.00415,0.95410,0.95482,-0.00585,-0.00081,-0.00141,0.00607,0.95482,0.00193,0.00671,3,12117,0,6238,0.00000,0.00000,0.00000,0,0,nan,0,0,0,2606,187491,0,0,0.000,0.000,0.000,0,0.000,0.000,0.000,0,0,4,0,0
PPG,1,94775,3792551552,25,481,512,0.000,0.000,0.000,0,0,0,0,0.00,nan,4,3,1,nan,3,3,24,1,1,23,23,0,0,0,3793741796,0.03638,0.00391,0.94873,0.94944,-0.00479,0.00025,-0.00087,0.00487,0.95361,0.00604,0.00642,3,12121,0,6238,0.00000,0.00000,0.00000,0,0,nan,0,0,0,2595,187491,0,0,0.000,0.000,0.000,0,0.000,0.000,0.000,0,0,4,0,0
PPG,1,94776,3792591552,25,481,489,0.000,0.000,0.000,0,0,0,0,0.00,nan,4,3,1,nan,3,3,24,1,1,24,24,0,0,0,3793782993,0.03784,0.00488,0.95215,0.95291,-0.00505,0.00079,-0.00087,0.00519,0.95594,0.00651,0.00635,3,12199,0,6238,0.00000,0.00000,0.00000,0,0,nan,0,0,0,4294,187491,0,0,0.000,0.000,0.000,0,0.000,0.000,0.000,0,0,4,0,0
PPG,1,94777,3792631552,31,483,500,0.000,0.000,0.000,0,0,0,0,0.00,nan,4,3,1,nan,3,3,24,1,1,25,25,0,0,0,3793821496,0.03955,0.00586,0.94995,0.95079,-0.00558,-0.00001,-0.00167,0.00583,0.96176,0.01097,0.00648,3,12110,0,6238,0.00000,0.00000,0.00000,0,0,nan,0,0,0,2599,187491,0,0,0.000,0.000,0.000,0,0.000,0.000,0.000,0,0,4,0,0
PPG,1,94778,3792671552,26,491,510,0.000,0.000,0.000,0,0,0,0,0.00,nan,4,3,1,nan,3,3,24,1,1,26,26,0,0,0,3793862633,0.03882,0.00757,0.95044,0.95126,-0.00612,-0.00108,-0.00194,0.00651,0.95126,0.00166,0.00738,3,12121,0,6238,0.00000,0.00000,0.00000,0,0,nan,0,0,0,4297,187491,0,0,0.000,0.000,0.000,0,0.000,0.000,0.000,0,0,4,0,0
PPG,1,94779,3792711552,25,498,515,0.000,0.000,0.000,0,0,0,0,0.00,nan,4,3,1,nan,3,3,24,1,1,27,27,0,0,0,3793901266,0.03638,0.00635,0.95190,0.95262,-0.00532,-0.00055,-0.00034,0.00536,0.95454,0.00328,0.00625,3,12126,0,6238,0.00000,0.00000,0.00000,0,0,nan,0,0,0,2597,187491,0,0,0.000,0.000,0.000,0,0.000,0.000,0.000,0,0,4,0,0
PPG,1,94780,3792751552,25,492,502,0.000,0.000,0.000,0,0,0,0,0.00,nan,4,3,1,nan,3,3,24,1,1,28,28,0,0,0,3793942413,0.03931,0.00708,0.95532,0.95616,-0.00638,-0.00081,-0.00167,0.00665,0.95616,0.00730,0.00665,3,12122,0,6238,0.00000,0.00000,0.00000,0,0,nan,0,0,0,4294,187491,0,0,0.000,0.000,0.000,0,0.000,0.000,0.000,0,0,4,0,0
PPG,1,94781,3792791552,25,485,487,0.000,0.000,0.000,0,0,0,0,0.00,nan,4,3,1,nan,3,3,24,1,1,29,29,0,0,0,3793980965,0.04004,0.00610,0.95410,0.95496,-0.00558,-0.00028,-0.00087,0.00566,0.95496,0.00325,0.00609,3,12158,0,6238,0.00000,0.00000,0.00000,0,0,nan,0,0,0,2615,187491,0,0,0.000,0.000,0.000,0,0.000,0.000,0.000,0,0,4,0,0
PPG,1,94782,3792831552,25,492,506,0.000,0.000,0.000,0,0,0,0,0.00,nan,4,3,1,nan,3,3,24,1,1,30,30,0,0,0,3794022140,0.03882,0.00635,0.94995,0.95077,-0.00585,-0.00055,-0.00221,0.00628,0.95697,0.00986,0.00628,3,12128,0,6238,0.00000,0.00000,0.00000,0,0,nan,0,0,0,2595,187491,0,0,0.000,0.000,0.000,0,0.000,0.000,0.000,0,0,4,0,0
PPG,1,94783,3792871552,25,488,506,0.000,0.000,0.000,0,0,0,0,0.00,nan,4,3,1,nan,3,3,24,1,1,31,31,0,0,0,3794063253,0.03955,0.00537,0.95435,0.95518,-0.00585,-0.00001,-0.00007,0.00585,0.95828,0.01063,0.00630,3,12117,0,6238,0.00000,0.00000,0.00000,0,0,nan,0,0,0,4314,187491,0,0,0.000,0.000,0.000,0,0.000,0.000,0.000,0,0,4,0,0
PPG,1,94784,3792911552,25,502,522,0.000,0.000,0.000,0,0,0,0,0.00,nan,4,3,1,nan,3,3,24,1,1,0,0,0,0,0,3794101857,0.03906,0.00684,0.94775,0.94858,-0.00505,-0.00028,-0.00194,0.00542,0.95406,0.00548,0.00599,3,12117,0,6238,0.00000,0.00000,0.00000,0,0,nan,0,0,0,2597,187491,0,0,0.000,0.000,0.000,0,0.000,0.000,0.000,0,0,4,0,0
PPG,1,94785,3792951552,25,479,499,0.000,0.000,0.000,0,0,0,0,0.00,nan,4,3,1,nan,3,3,24,1,1,1,1,0,0,0,3794142967,0.03906,0.00049,0.94995,0.95075,-0.00638,0.00025,-0.00167,0.00660,0.95117,0.00160,0.00660,3,12121,0,6238,0.00000,0.00000,0.00000,0,0,nan,0,0,0,4298,187491,0,0,0.000,0.000,0.000,0,0.000,0.000,0.000,0,0,4,0,0
PPG,1,94786,3792991552,35,480,479,0.000,0.000,0.000,0,0,0,0,0.00,nan,4,3,1,nan,3,3,24,1,1,2,2,0,0,0,3794181486,0.04028,0.00317,0.94751,0.94837,-0.00692,-0.00108,-0.00167,0.00720,0.95613,0.01087,0.00720,3,12116,0,6238,0.00000,0.00000,0.00000,0,0,nan,0,0,0,2596,187491,0,0,0.000,0.000,0.000,0,0.000,0.000,0.000,0,0,4,0,0
PPG,1,94787,3793031552,25,496,497,0.000,0.000,0.000,0,0,0,0,0.00,nan,4,3,1,nan,3,3,24,1,1,3,3,0,0,0,3794222697,0.03955,0.00708,0.95166,0.95251,-0.00558,-0.00028,-0.00141,0.00577,0.95251,0.00326,0.00727,3,12120,0,6238,0.00000,0.00000,0.00000,0,0,nan,0,0,0,4296,187491,0,0,0.000,0.000,0.000,0,0.000,0.000,0.000,0,0,4,0,0
PPG,1,94788,3793071552,25,496,514,0.000,0.000,0.000,0,0,0,0,0.00,nan,4,3,1,nan,3,3,24,1,1,4,4,0,0,0,3794261228,0.03955,0.00635,0.95142,0.95226,-0.00612,-0.00108,-0.00167,0.00643,0.95855,0.00863,0.00643,3,12121,0,6238,0.00000,0.00000,0.00000,0,0,nan,0,0,0,2601,187491,0,0,0.000,0.000,0.000,0,0.000,0.000,0.000,0,0,4,0,0
PPG,1,94789,3793111552,25,502,513,0.000,0.000,0.000,0,0,0,0,0.00,nan,4,3,1,nan,3,3,24,1,1,5,5,0,0,0,3794302583,0.03638,0.00781,0.95117,0.95190,-0.00585,0.00025,-0.00247,0.00636,0.95977,0.00751,0.00636,3,12302,0,6238,0.00000,0.00000,0.00000,0,0,nan,0,0,0,4336,187491,0,0,0.000,0.000,0.000,0,0.000,0.000,0.000,0,0,4,0,0
PPG,1,94790,3793151552,30,489,504,0.000,0.000,0.000,0,0,0,0,0.00,nan,4,3,1,nan,3,3,24,1,1,6,6,0,0,0,3794341359,0.04028,0.00879,0.95630,0.95719,-0.00532,-0.00055,-0.00087,0.00542,0.95719,0.00577,0.00662,3,12111,0,6238,0.00000,0.00000,0.00000,0,0,nan,0,0,0,2600,187491,0,0,0.000,0.000,0.000,0,0.000,0.000,0.000,0,0,4,0,0
PPG,1,94791,3793191552,26,493,505,0.000,0.000,0.000,0,0,0,0,0.00,nan,4,3,1,nan,3,3,24,1,1,7,7,0,0,0,3794382549,0.03882,0.00879,0.95190,0.95274,-0.00585,-0.00081,-0.00194,0.00622,0.95274,0.00814,0.00683,3,12109,0,6238,0.00000,0.00000,0.00000,0,0,nan,0,0,0,4295,187491,0,0,0.000,0.000,0.000,0,0.000,0.000,0.000,0,0,4,0,0
PPG,1,94792,3793231552,25,488,491,0.000,0.000,0.000,0,0,0,0,0.00,nan,4,3,1,nan,3,3,24,1,1,8,8,0,0,0,3794421196,0.03931,0.00464,0.94775,0.94858,-0.00558,-0.00108,-0.00061,0.00572,0.95370,0.00413,0.00572,3,12154,0,6238,0.00000,0.00000,0.00000,0,0,nan,0,0,0,2597,187491,0,0,0.000,0.000,0.000,0,0.000,0.000,0.000,0,0,4,0,0
PPG,1,94793,3793271552,25,501,510,0.000,0.000,0.000,0,0,0,0,0.00,nan,4,3,1,nan,3,3,24,1,1,9,9,0,0,0,3794462512,0.03833,0.00342,0.95361,0.95439,-0.00612,-0.00028,-0.00114,0.00623,0.95794,0.00936,0.00667,3,12263,0,6238,0.00000,0.00000,0.00000,0,0,nan,0,0,0,4296,187491,0,0,0.000,0.000,0.000,0,0.000,0.000,0.000,0,0,4,0,0
PPG,1,94794,3793311552,30,496,513,0.000,0.000,0.000,0,0,0,0,0.00,nan,4,3,1,nan,3,3,24,1,1,10,10,0,0,0,3794501321,0.03955,0.00244,0.95068,0.95151,-0.00585,-0.00028,-0.00167,0.00609,0.95151,0.00373,0.00705,3,12415,0,6238,0.00000,0.00000,0.00000,0,0,nan,0,0,0,2618,187491,0,0,0.000,0.000,0.000,0,0.000,0.000,0.000,0,0,4,0,0
PPG,1,94795,3793351552,27,487,509,0.000,0.000,0.000,0,0,0,0,0.00,nan,4,3,1,nan,3,3,24,1,1,11,11,0,0,0,3794542808,0.03760,0.00732,0.95801,0.95877,-0.00638,-0.00055,-0.00141,0.00656,0.95877,0.01149,0.00656,3,12256,0,6238,0.00000,0.00000,0.00000,0,0,nan,0,0,0,4344,187491,0,0,0.000,0.000,0.000,0,0.000,0.000,0.000,0,0,4,0,0
PPG,1,94796,3793391552,27,505,511,0.000,0.000,0.000,0,0,0,0,0.00,nan,4,3,1,nan,3,3,24,1,1,12,12,0,0,0,3794585850,0.04370,0.00464,0.94897,0.94999,-0.00638,0.00025,-0.00061,0.00642,0.95616,0.00734,0.00665,3,12251,0,6238,0.00000,0.00000,0.00000,0,0,nan,0,0,0,2600,187491,0,0,0.000,0.000,0.000,0,0.000,0.000,0.000,0,0,4,0,0
PPG,1,94797,3793431552,26,493,512,0.000,0.000,0.000,0,0,0,0,0.00,nan,4,3,1,nan,3,3,24,1,1,13,13,0,0,0,3794624747,0.03833,0.00732,0.95142,0.95222,-0.00558,-0.00135,-0.00114,0.00586,0.95476,0.00353,0.00644,3,12252,0,6238,0.00000,0.00000,0.00000,0,0,nan,0,0,0,4348,187491,0,0,0.000,0.000,0.000,0,0.000,0.000,0.000,0,0,4,0,0
PPG,1,94798,3793471552,25,494,502,0.000,0.000,0.000,0,0,0,0,0.00,nan,4,3,1,nan,3,3,24,1,1,14,14,0,0,0,3794663673,0.04053,0.00415,0.95166,0.95253,-0.00585,-0.00135,-0.00194,0.00631,0.95880,0.00627,0.00664,3,12244,0,6238,0.00000,0.00000,0.00000,0,0,nan,0,0,0,4321,187491,0,0,0.000,0.000,0.000,0,0.000,0.000,0.000,0,0,4,0,0
PPG,1,94799,3793511552,25,486,499,0.000,0.000,0.000,0,0,0,0,0.00,nan,4,3,1,nan,3,3,24,1,1,15,15,0,0,0,3794702600,0.03589,0.00562,0.95605,0.95674,-0.00585,-0.00108,-0.00114,0.00606,0.95674,0.00549,0.00636,3,12305,0,6238,0.00000,0.00000,0.00000,0,0,nan,0,0,0,4332,187491,0,0,0.000,0.000,0.000,0,0.000,0.000,0.000,0,0,4,0,0
PPG,1,94800,3793551552,35,488,505,0.000,0.000,0.000,0,0,0,0,0.00,nan,4,3,1,nan,3,3,24,1,1,16,16,0,0,0,3794741482,0.03662,0.00830,0.94946,0.95021,-0.00452,-0.00028,-0.00141,0.00474,0.95303,0.01041,0.00556,3,12237,0,6238,0.00000,0.00000,0.00000,0,0,nan,0,0,0,2618,187491,0,0,0.000,0.000,0.000,0,0.000,0.000,0.000,0,0,4,0,0
PPG,1,94801,3793591552,29,496,498,0.000,0.000,0.000,0,0,0,0,0.00,nan,4,3,1,nan,3,3,24,1,1,17,17,0,0,0,3794782941,0.03735,0.00977,0.95386,0.95464,-0.00612,0.00025,-0.00247,0.00660,0.95464,0.00454,0.00660,3,12276,0,6238,0.00000,0.00000,0.00000,0,0,nan,0,0,0,4334,187491,0,0,0.000,0.000,0.000,0,0.000,0.000,0.000,0,0,4,0,0
PPG,1,94802,3793631552,26,487,509,0.000,0.000,0.000,0,0,0,0,0.00,nan,4,3,1,nan,3,3,24,1,1,18,18,0,0,0,3794821877,0.03589,0.00439,0.95190,0.95259,-0.00558,-0.00028,-0.00167,0.00584,0.95641,0.00382,0.00617,3,12256,0,6238,0.00000,0.00000,0.00000,0,0,nan,0,0,0,2617,187491,0,0,0.000,0.000,0.000,0,0.000,0.000,0.000,0,0,4,0,0
PPG,1,94803,3793671552,26,488,509,0.000,0.000,0.000,0,0,0,0,0.00,nan,4,3,1,nan,3,3,24,1,1,19,19,0,0,0,3794863306,0.04150,0.00977,0.95288,0.95383,-0.00612,-0.00161,-0.00247,0.00679,0.95383,0.00313,0.00679,3,12242,0,6238,0.00000,0.00000,0.00000,0,0,nan,0,0,0,4348,187491,0,0,0.000,0.000,0.000,0,0.000,0.000,0.000,0,0,4,0,0
PPG,1,94804,3793711552,25,489,508,0.000,0.000,0.000,0,0,0,0,0.00,nan,4,3,1,nan,3,3,24,1,1,20,20,0,0,0,3794937978,0.03540,0.00708,0.94434,0.94503,-0.00612,-0.00108,-0.00221,0.00659,0.95181,0.00678,0.00662,2,60342,0,6243,0.00000,0.00000,0.00000,0,0,nan,0,0,0,60364,187491,0,0,0.000,0.000,0.000,0,0.000,0.000,0.000,0,0,4,0,0
PPG,1,94805,3793751552,25,489,509,0.000,0.000,0.000,0,0,0,0,0.00,nan,4,3,1,nan,3,3,24,1,1,21,21,0,0,0,3794937978,0.03540,0.00708,0.94434,0.94503,-0.00612,-0.00108,-0.00221,0.00659,0.00000,0.00000,0.00000,0,60342,0,6243,0.00000,0.00000,0.00000,0,0,nan,0,0,0,11732,187491,0,0,0.000,0.000,0.000,0,0.000,0.000,0.000,0,0,4,0,0
PPG,1,94806,3793791552,26,488,501,0.000,0.000,0.000,0,0,0,0,0.00,nan,4,3,1,nan,3,3,24,1,1,22,22,0,0,0,3794984150,0.04126,0.00415,0.95166,0.95256,-0.00558,0.00025,-0.00167,0.00583,0.95751,0.01248,0.00633,3,12252,0,6244,0.00000,0.00000,0.00000,0,0,nan,0,0,0,4324,187491,0,0,0.000,0.000,0.000,0,0.000,0.000,0.000,0,0,4,0,0
PPG,1,94807,3793831552,26,495,506,0.000,0.000,0.000,0,0,0,0,0.00,nan,4,3,1,nan,3,3,24,1,1,23,23,0,0,0,3795022979,0.03687,0.00317,0.94580,0.94652,-0.00692,-0.00028,-0.00167,0.00712,0.95781,0.00961,0.00712,3,12225,0,6244,0.00000,0.00000,0.00000,0,0,nan,0,0,0,4327,187491,0,0,0.000,0.000,0.000,0,0.000,0.000,0.000,0,0,4,0,0
PPG,1,94808,3793871552,26,491,523,0.000,0.000,0.000,0,0,0,0,0.00,nan,4,3,1,nan,3,3,24,1,1,24,24,0,0,0,3795061797,0.04028,0.00781,0.95142,0.95230,-0.00505,-0.00055,-0.00061,0.00512,0.95261,0.00360,0.00738,3,12234,0,6244,0.00000,0.00000,0.00000,0,0,nan,0,0,0,2626,187491,0,0,0.000,0.000,0.000,0,0.000,0.000,0.000,0,0,4,0,0
PPG,1,94809,3793911552,37,484,507,0.000,0.000,0.000,0,0,0,0,0.00,nan,4,3,1,nan,3,3,24,1,1,25,25,0,0,0,3795103239,0.04126,0.00391,0.95068,0.95159,-0.00558,-0.00081,-0.00167,0.00589,0.95301,0.00120,0.00649,3,12229,0,6244,0.00000,0.00000,0.00000,0,0,nan,0,0,0,4376,187491,0,0,0.000,0.000,0.000,0,0.000,0.000,0.000,0,0,4,0,0
PPG,1,94810,3793951552,26,484,503,0.000,0.000,0.000,0,0,0,0,0.00,nan,4,3,1,nan,3,3,24,1,1,26,26,0,0,0,3795142031,0.03662,0.00537,0.94604,0.94677,-0.00585,-0.00001,-0.00087,0.00592,0.95567,0.00933,0.00592,3,12143,0,6244,0.00000,0.00000,0.00000,0,0,nan,0,0,0,2663,187491,0,0,0.000,0.000,0.000,0,0.000,0.000,0.000,0,0,4,0,0
PPG,1,94811,3793991552,25,499,524,0.000,0.000,0.000,0,0,0,0,0.00,nan,4,3,1,nan,3,3,24,1,1,27,27,0,0,0,3795183352,0.04419,0.00244,0.94775,0.94879,-0.00638,-0.00055,-0.00141,0.00656,0.95864,0.01187,0.00673,3,12116,0,6244,0.00000,0.00000,0.00000,0,0,nan,0,0,0,4333,187491,0,0,0.000,0.000,0.000,0,0.000,0.000,0.000,0,0,4,0,0
PPG,1,94812,3794031552,26,487,508,0.000,0.000,0.000,0,0,0,0,0.00,nan,4,3,1,nan,3,3,24,1,1,28,28,0,0,0,3795221936,0.03906,0.00610,0.94702,0.94785,-0.00558,-0.00055,-0.00194,0.00594,0.95510,0.00725,0.00632,3,12158,0,6244,0.00000,0.00000,0.00000,0,0,nan,0,0,0,2595,187491,0,0,0.000,0.000,0.000,0,0.000,0.000,0.000,0,0,4,0,0
PPG,1,94813,3794071552,26,496,512,0.000,0.000,0.000,0,0,0,0,0.00,nan,4,3,1,nan,3,3,24,1,1,29,29,0,0,0,3795263068,0.04102,0.00439,0.95288,0.95377,-0.00612,-0.00028,-0.00114,0.00623,0.95584,0.00800,0.00630,3,12121,0,6244,0.00000,0.00000,0.00000,0,0,nan,0,0,0,4302,187491,0,0,0.000,0.000,0.000,0,0.000,0.000,0.000,0,0,4,0,0
PPG,1,94814,3794111552,26,499,512,0.000,0.000,0.000,0,0,0,0,0.00,nan,4,3,1,nan,3,3,24,1,1,30,30,0,0,0,3795301609,0.03906,0.00830,0.95142,0.95225,-0.00505,0.00025,-0.00141,0.00525,0.95225,0.00562,0.00627,3,12130,0,6244,0.00000,0.00000,0.00000,0,0,nan,0,0,0,2598,187491,0,0,0.000,0.000,0.000,0,0.000,0.000,0.000,0,0,4,0,0
PPG,1,94815,3794151552,25,483,511,0.000,0.000,0.000,0,0,0,0,0.00,nan,4,3,1,nan,3,3,24,1,1,31,31,0,0,0,3795342745,0.03857,0.00830,0.95142,0.95223,-0.00692,0.00025,-0.00194,0.00719,0.95223,0.00231,0.00719,3,12119,0,6244,0.00000,0.00000,0.00000,0,0,nan,0,0,0,4294,187491,0,0,0.000,0.000,0.000,0,0.000,0.000,0.000,0,0,4,0,0
PPG,1,94816,3794191552,25,480,500,0.000,0.000,0.000,0,0,0,0,0.00,nan,4,3,1,nan,3,3,24,1,1,0,0,0,0,0,3795381264,0.04126,0.00684,0.95264,0.95355,-0.00532,-0.00081,-0.00247,0.00592,0.95355,0.00301,0.00686,3,12120,0,6244,0.00000,0.00000,0.00000,0,0,nan,0,0,0,2597,187491,0,0,0.000,0.000,0.000,0,0.000,0.000,0.000,0,0,4,0,0
PPG,1,94817,3794231552,26,480,508,0.000,0.000,0.000,0,0,0,0,0.00,nan,4,3,1,nan,3,3,24,1,1,1,1,0,0,0,3795422410,0.03833,0.00635,0.94873,0.94953,-0.00585,-0.00001,-0.00087,0.00592,0.95315,0.00282,0.00654,3,12161,0,6244,0.00000,0.00000,0.00000,0,0,nan,0,0,0,2595,187491,0,0,0.000,0.000,0.000,0,0.000,0.000,0.000,0,0,4,0,0
PPG,1,94818,3794271552,25,484,498,0.000,0.000,0.000,0,0,0,0,0.00,nan,4,3,1,nan,3,3,24,1,1,2,2,0,0,0,3795463527,0.03809,0.00635,0.95557,0.95635,-0.00558,-0.00108,-0.00194,0.00601,0.95681,0.00729,0.00601,3,12115,0,6244,0.00000,0.00000,0.00000,0,0,nan,0,0,0,4299,187491,0,0,0.000,0.000,0.000,0,0.000,0.000,0.000,0,0,4,0,0
PPG,1,94819,3794311552,26,505,507,0.000,0.000,0.000,0,0,0,0,0.00,nan,4,3,1,nan,3,3,24,1,1,3,3,0,0,0,3795502052,0.03760,0.00757,0.94849,0.94926,-0.00505,-0.00001,-0.00141,0.00524,0.95854,0.00465,0.00664,3,12119,0,6244,0.00000,0.00000,0.00000,0,0,nan,0,0,0,2599,187491,0,0,0.000,0.000,0.000,0,0.000,0.000,0.000,0,0,4,0,0
PPG,1,94820,3794351552,25,508,515,0.000,0.000,0.000,0,0,0,0,0.00,nan,4,3,1,nan,3,3,24,1,1,4,4,0,0,0,3795543227,0.03711,0.00659,0.94946,0.95021,-0.00638,-0.00055,-0.00061,0.00644,0.95226,0.00300,0.00644,3,12121,0,6244,0.00000,0.00000,0.00000,0,0,nan,0,0,0,4298,187491,0,0,0.000,0.000,0.000,0,0.000,0.000,0.000,0,0,4,0,0
PPG,1,94821,3794391552,23,496,515,0.000,0.000,0.000,0,0,0,0,0.00,nan,4,3,1,nan,3,3,24,1,1,5,5,0,0,0,3795585881,0.03955,0.00586,0.95020,0.95104,-0.00532,0.00052,-0.00274,0.00600,0.95388,0.00356,0.00600,3,12153,0,6244,0.00000,0.00000,0.00000,0,0,nan,0,0,0,2590,187491,0,0,0.000,0.000,0.000,0,0.000,0.000,0.000,0,0,4,0,0
PPG,1,94822,3794431552,25,492,501,0.000,0.000,0.000,0,0,0,0,0.00,nan,4,3,1,nan,3,3,24,1,1,6,6,0,0,0,3795624478,0.04102,0.01074,0.94678,0.94773,-0.00585,-0.00108,-0.00141,0.00611,0.95411,0.00638,0.00617,3,12167,0,6244,0.00000,0.00000,0.00000,0,0,nan,0,0,0,4295,187491,0,0,0.000,0.000,0.000,0,0.000,0.000,0.000,0,0,4,0,0
PPG,1,94823,3794471552,35,481,497,0.000,0.000,0.000,0,0,0,0,0.00,nan,4,3,1,nan,3,3,24,1,1,7,7,0,0,0,3795662996,0.04102,0.00757,0.94849,0.94940,-0.00612,-0.00001,-0.00221,0.00650,0.95650,0.00710,0.00650,3,12117,0,6244,0.00000,0.00000,0.00000,0,0,nan,0,0,0,4295,187491,0,0,0.000,0.000,0.000,0,0.000,0.000,0.000,0,0,4,0,0
PPG,1,94824,3794511552,25,487,514,0.000,0.000,0.000,0,0,0,0,0.00,nan,4,3,1,nan,3,3,24,1,1,8,8,0,0,0,3795701536,0.04126,0.00732,0.95288,0.95380,-0.00532,0.00052,-0.00114,0.00546,0.95380,0.00397,0.00628,3,12110,0,6244,0.00000,0.00000,0.00000,0,0,nan,0,0,0,2599,187491,0,0,0.000,0.000,0.000,0,0.000,0.000,0.000,0,0,4,0,0
PPG,1,94825,3794551552,26,506,509,0.000,0.000,0.000,0,0,0,0,0.00,nan,4,3,1,nan,3,3,24,1,1,9,9,0,0,0,3795742723,0.04077,0.00903,0.95508,0.95599,-0.00585,-0.00135,-0.00141,0.00617,0.95599,0.00819,0.00658,3,12119,0,6244,0.00000,0.00000,0.00000,0,0,nan,0,0,0,4299,187491,0,0,0.000,0.000,0.000,0,0.000,0.000,0.000,0,0,4,0,0
PPG,1,94826,3794591552,25,495,508,0.000,0.000,0.000,0,0,0,0,0.00,nan,4,3,1,nan,3,3,24,1,1,10,10,0,0,0,3795781264,0.03784,0.00293,0.94824,0.94900,-0.00718,-0.00001,-0.00141,0.00732,0.95242,0.00731,0.00732,3,12126,0,6244,0.00000,0.00000,0.00000,0,0,nan,0,0,0,2597,187491,0,0,0.000,0.000,0.000,0,0.000,0.000,0.000,0,0,4,0,0
PPG,1,94827,3794631552,25,481,505,0.000,0.000,0.000,0,0,0,0,0.00,nan,4,3,1,nan,3,3,24,1,1,11,11,0,0,0,3795822390,0.03491,0.00610,0.95190,0.95256,-0.00585,-0.00055,-0.00087,0.00594,0.95318,0.00951,0.00620,3,12136,0,6244,0.00000,0.00000,0.00000,0,0,nan,0,0,0,2611,187491,0,0,0.000,0.000,0.000,0,0.000,0.000,0.000,0,0,4,0,0
PPG,1,94828,3794671552,25,480,498,0.000,0.000,0.000,0,0,0,0,0.00,nan,4,3,1,nan,3,3,24,1,1,12,12,0,0,0,3795863519,0.03760,0.01074,0.95361,0.95441,-0.00638,-0.00081,-0.00141,0.00659,0.95441,0.00319,0.00692,3,12112,0,6244,0.00000,0.00000,0.00000,0,0,nan,0,0,0,4297,187491,0,0,0.000,0.000,0.000,0,0.000,0.000,0.000,0,0,4,0,0
PPG,1,94829,3794711552,25,489,492,0.000,0.000,0.000,0,0,0,0,0.00,nan,4,3,1,nan,3,3,24,1,1,13,13,0,0,0,3795902054,0.04224,0.00562,0.95020,0.95115,-0.00585,-0.00108,-0.00114,0.00606,0.95566,0.00451,0.00623,3,12125,0,6244,0.00000,0.00000,0.00000,0,0,nan,0,0,0,2598,187491,0,0,0.000,0.000,0.000,0,0.000,0.000,0.000,0,0,4,0,0
PPG,1,94830,3794751552,25,488,504,0.000,0.000,0.000,0,0,0,0,0.00,nan,4,3,1,nan,3,3,24,1,1,14,14,0,0,0,3795943241,0.03931,0.00171,0.95190,0.95272,-0.00532,-0.00055,-0.00194,0.00569,0.95605,0.00334,0.00581,3,12114,0,6244,0.00000,0.00000,0.00000,0,0,nan,0,0,0,4295,187491,0,0,0.000,0.000,0.000,0,0.000,0.000,0.000,0,0,4,0,0
PPG,1,94831,3794791552,25,498,512,0.000,0.000,0.000,0,0,0,0,0.00,nan,4,3,1,nan,3,3,24,1,1,15,15,0,0,0,3795981749,0.03735,0.00269,0.95239,0.95313,-0.00585,-0.00001,-0.00221,0.00625,0.95313,0.00274,0.00625,3,12124,0,6244,0.00000,0.00000,0.00000,0,0,nan,0,0,0,2603,187491,0,0,0.000,0.000,0.000,0,0.000,0.000,0.000,0,0,4,0,0
PPG,1,94832,3794831552,25,512,518,0.000,0.000,0.000,0,0,0,0,0.00,nan,4,3,1,nan,3,3,24,1,1,16,16,0,0,0,3796022854,0.03906,0.00391,0.95288,0.95369,-0.00665,-0.00215,-0.00141,0.00713,0.95369,0.00481,0.00713,3,12111,0,6244,0.00000,0.00000,0.00000,0,0,nan,0,0,0,4308,187491,0,0,0.000,0.000,0.000,0,0.000,0.000,0.000,0,0,4,0,0
PPG,1,94833,3794871552,26,503,518,0.000,0.000,0.000,0,0,0,0,0.00,nan,4,3,1,nan,3,3,24,1,1,17,17,0,0,0,3796061446,0.04077,0.00781,0.95947,0.96037,-0.00638,-0.00001,-0.00114,0.00648,0.96037,0.00775,0.00657,3,12129,0,6244,0.00000,0.00000,0.00000,0,0,nan,0,0,0,2606,187491,0,0,0.000,0.000,0.000,0,0.000,0.000,0.000,0,0,4,0,0
PPG,1,94834,3794911552,25,476,489,0.000,0.000,0.000,0,0,0,0,0.00,nan,4,3,1,nan,3,3,24,1,1,18,18,0,0,0,3796102606,0.03394,0.00806,0.94873,0.94937,-0.00558,-0.00081,-0.00114,0.00576,0.95666,0.00811,0.00673,3,12131,0,6244,0.00000,0.00000,0.00000,0,0,nan,0,0,0,2604,187491,0,0,0.000,0.000,0.000,0,0.000,0.000,0.000,0,0,4,0,0
PPG,1,94835,3794951552,25,487,496,0.000,0.000,0.000,0,0,0,0,0.00,nan,4,3,1,nan,3,3,24,1,1,19,19,0,0,0,3796143799,0.04077,0.00635,0.95117,0.95207,-0.00585,-0.00055,-0.00007,0.00588,0.95338,0.00401,0.00649,3,12170,0,6244,0.00000,0.00000,0.00000,0,0,nan,0,0,0,4308,187491,0,0,0.000,0.000,0.000,0,0.000,0.000,0.000,0,0,4,0,0
PPG,1,94836,3794991552,25,500,522,0.000,0.000,0.000,0,0,0,0,0.00,nan,4,3,1,nan,3,3,24,1,1,20,20,0,0,0,3796182337,0.04077,0.00342,0.95044,0.95132,-0.00345,-0.00028,-0.00167,0.00385,0.95999,0.00793,0.00637,3,12112,0,6244,0.00000,0.00000,0.00000,0,0,nan,0,0,0,2597,187491,0,0,0.000,0.000,0.000,0,0.000,0.000,0.000,0,0,4,0,0
PPG,1,94837,3795031552,25,495,516,0.000,0.000,0.000,0,0,0,0,0.00,nan,4,3,1,nan,3,3,24,1,1,21,21,0,0,0,3796223456,0.03979,0.00366,0.94946,0.95030,-0.00505,-0.00081,-0.00034,0.00513,0.95472,0.00368,0.00676,3,12113,0,6244,0.00000,0.00000,0.00000,0,0,nan,0,0,0,4300,187491,0,0,0.000,0.000,0.000,0,0.000,0.000,0.000,0,0,4,0,0
PPG,1,94838,3795071552,26,485,515,0.000,0.000,0.000,0,0,0,0,0.00,nan,4,3,1,nan,3,3,24,1,1,22,22,0,0,0,3796262469,0.04126,0.00830,0.94873,0.94966,-0.00612,-0.00055,-0.00167,0.00637,0.95401,0.00371,0.00720,3,12265,0,6244,0.00000,0.00000,0.00000,0,0,nan,0,0,0,2601,187491,0,0,0.000,0.000,0.000,0,0.000,0.000,0.000,0,0,4,0,0
PPG,1,94839,3795111552,25,495,515,0.000,0.000,0.000,0,0,0,0,0.00,nan,4,3,1,nan,3,3,24,1,1,23,23,0,0,0,3796303648,0.04028,0.00879,0.94849,0.94938,-0.00479,0.00025,-0.00141,0.00499,0.96186,0.01248,0.00651,3,12175,0,6244,0.00000,0.00000,0.00000,0,0,nan,0,0,0,4303,187491,0,0,0.000,0.000,0.000,0,0.000,0.000,0.000,0,0,4,0,0
PPG,1,94840,3795151552,25,496,496,0.000,0.000,0.000,0,0,0,0,0.00,nan,4,3,1,nan,3,3,24,1,1,24,24,0,0,0,3796342235,0.03369,0.00342,0.94482,0.94543,-0.00612,-0.00161,-0.00221,0.00670,0.94891,0.00345,0.00670,3,12187,0,6244,0.00000,0.00000,0.00000,0,0,nan,0,0,0,2595,187491,0,0,0.000,0.000,0.000,0,0.000,0.000,0.000,0,0,4,0,0
PPG,1,94841,3795191552,25,498,506,0.000,0.000,0.000,0,0,0,0,0.00,nan,4,3,1,nan,3,3,24,1,1,25,25,0,0,0,3796383481,0.03906,0.00610,0.95117,0.95199,-0.00638,-0.00001,-0.00167,0.00660,0.95199,0.00325,0.00673,3,12109,0,6244,0.00000,0.00000,0.00000,0,0,nan,0,0,0,4295,187491,0,0,0.000,0.000,0.000,0,0.000,0.000,0.000,0,0,4,0,0
PPG,1,94842,3795231552,25,495,518,0.000,0.000,0.000,0,0,0,0,0.00,nan,4,3,1,nan,3,3,24,1,1,26,26,0,0,0,3796422118,0.04126,0.00757,0.94873,0.94966,-0.00532,-0.00081,-0.00061,0.00541,0.95592,0.00670,0.00578,3,12138,0,6244,0.00000,0.00000,0.00000,0,0,nan,0,0,0,2606,187491,0,0,0.000,0.000,0.000,0,0.000,0.000,0.000,0,0,4,0,0
PPG,1,94843,3795271552,26,480,498,0.000,0.000,0.000,0,0,0,0,0.00,nan,4,3,1,nan,3,3,24,1,1,27,27,0,0,0,3796463679,0.03638,0.00732,0.94824,0.94897,-0.00532,0.00105,-0.00141,0.00560,0.95149,0.00183,0.00611,3,12265,0,6244,0.00000,0.00000,0.00000,0,0,nan,0,0,0,4337,187491,0,0,0.000,0.000,0.000,0,0.000,0.000,0.000,0,0,4,0,0
PPG,1,94844,3795311552,25,498,509,0.000,0.000,0.000,0,0,0,0,0.00,nan,4,3,1,nan,3,3,24,1,1,28,28,0,0,0,3796502633,0.03809,0.00220,0.95435,0.95511,-0.00692,0.00052,-0.00061,0.00696,0.96050,0.00849,0.00696,3,12260,0,6244,0.00000,0.00000,0.00000,0,0,nan,0,0,0,2637,187491,0,0,0.000,0.000,0.000,0,0.000,0.000,0.000,0,0,4,0,0
PPG,1,94845,3795351552,27,494,514,0.000,0.000,0.000,0,0,0,0,0.00,nan,4,3,1,nan,3,3,24,1,1,29,29,0,0,0,3796544075,0.04297,0.00977,0.95093,0.95195,-0.00638,-0.00028,-0.00167,0.00661,0.95195,0.00437,0.00728,3,12228,0,6244,0.00000,0.00000,0.00000,0,0,nan,0,0,0,4349,187491,0,0,0.000,0.000,0.000,0,0.000,0.000,0.000,0,0,4,0,0
PPG,1,94846,3795391552,24,500,507,0.000,0.000,0.000,0,0,0,0,0.00,nan,4,3,1,nan,3,3,24,1,1,30,30,0,0,0,3796587371,0.03809,0.00244,0.95166,0.95243,-0.00558,-0.00108,-0.00034,0.00570,0.95243,0.00668,0.00697,3,12291,0,6244,0.00000,0.00000,0.00000,0,0,nan,0,0,0,2616,187491,0,0,0.000,0.000,0.000,0,0.000,0.000,0.000,0,0,4,0,0
PPG,1,94847,3795431552,24,482,504,0.000,0.000,0.000,0,0,0,0,0.00,nan,4,3,1,nan,3,3,24,1,1,31,31,0,0,0,3796626295,0.03613,0.00635,0.95386,0.95456,-0.00612,-0.00108,-0.00141,0.00637,0.95456,0.00418,0.00670,3,12262,0,6244,0.00000,0.00000,0.00000,0,0,nan,0,0,0,2615,187491,0,0,0.000,0.000,0.000,0,0.000,0.000,0.000,0,0,4,0,0
PPG,1,94848,3795471552,25,498,504,0.000,0.000,0.000,0,0,0,0,0.00,nan,4,3,1,nan,3,3,24,1,1,0,0,0,0,0,3796665217,0.03931,0.00415,0.95068,0.95150,-0.00505,-0.00135,-0.00114,0.00535,0.95697,0.01271,0.00609,3,12262,0,6244,0.00000,0.00000,0.00000,0,0,nan,0,0,0,4340,187491,0,0,0.000,0.000,0.000,0,0.000,0.000,0.000,0,0,4,0,0
PPG,1,94849,3795511552,28,495,506,0.000,0.000,0.000,0,0,0,0,0.00,nan,4,3,1,nan,3,3,24,1,1,1,1,0,0,0,3796703996,0.04053,0.00586,0.94702,0.94791,-0.00665,-0.00028,-0.00194,0.00693,0.95454,0.00531,0.00693,3,12239,0,6244,0.00000,0.00000,0.00000,0,0,nan,0,0,0,4319,187491,0,0,0.000,0.000,0.000,0,0.000,0.000,0.000,0,0,4,0,0
PPG,1,94850,3795551552,26,501,519,0.000,0.000,0.000,0,0,0,0,0.00,nan,4,3,1,nan,3,3,24,1,1,2,2,0,0,0,3796742883,0.04053,0.00537,0.95093,0.95181,-0.00532,-0.00135,-0.00141,0.00566,0.95405,0.00510,0.00602,3,12252,0,6244,0.00000,0.00000,0.00000,0,0,nan,0,0,0,2638,187491,0,0,0.000,0.000,0.000,0,0.000,0.000,0.000,0,0,4,0,0
PPG,1,94851,3795591552,25,483,504,0.000,0.000,0.000,0,0,0,0,0.00,nan,4,3,1,nan,3,3,24,1,1,3,3,0,0,0,3796784355,0.03564,0.00195,0.94507,0.94574,-0.00718,-0.00055,-0.00114,0.00729,0.95573,0.00999,0.00729,3,12191,0,6244,0.00000,0.00000,0.00000,0,0,nan,0,0,0,4335,187491,0,0,0.000,0.000,0.000,0,0.000,0.000,0.000,0,0,4,0,0
PPG,1,94852,3795631552,26,481,499,0.000,0.000,0.000,0,0,0,0,0.00,nan,4,3,1,nan,3,3,24,1,1,4,4,0,0,0,3796823175,0.03906,0.00439,0.95581,0.95662,-0.00452,-0.00001,-0.00061,0.00456,0.95730,0.01156,0.00614,3,12219,0,6244,0.00000,0.00000,0.00000,0,0,nan,0,0,0,4333,187491,0,0,0.000,0.000,0.000,0,0.000,0.000,0.000,0,0,4,0,0
PPG,1,94853,3795671552,25,488,502,0.000,0.000,0.000,0,0,0,0,0.00,nan,4,3,1,nan,3,3,24,1,1,5,5,0,0,0,3796862047,0.03589,0.00146,0.95020,0.95087,-0.00558,-0.00135,-0.00141,0.00591,0.95473,0.00386,0.00635,3,12262,0,6244,0.00000,0.00000,0.00000,0,0,nan,0,0,0,2627,187491,0,0,0.000,0.000,0.000,0,0.000,0.000,0.000,0,0,4,0,0
PPG,1,94854,3795711552,25,489,506,0.000,0.000,0.000,0,0,0,0,0.00,nan,4,3,1,nan,3,3,24,1,1,6,6,0,0,0,3796903523,0.04004,0.00659,0.95508,0.95594,-0.00638,0.00025,-0.00141,0.00654,0.95594,0.00422,0.00654,3,12233,0,6244,0.00000,0.00000,0.00000,0,0,nan,0,0,0,4312,187491,0,0,0.000,0.000,0.000,0,0.000,0.000,0.000,0,0,4,0,0
PPG,1,94855,3795751552,26,501,512,0.000,0.000,0.000,0,0,0,0,0.00,nan,4,3,1,nan,3,3,24,1,1,7,7,0,0,0,3796942308,0.03760,0.00659,0.95337,0.95413,-0.00585,-0.00001,-0.00221,0.00625,0.95755,0.00446,0.00784,3,12234,0,6244,0.00000,0.00000,0.00000,0,0,nan,0,0,0,2656,187491,0,0,0.000,0.000,0.000,0,0.000,0.000,0.000,0,0,4,0,0
PPG,1,94856,3795791552,25,488,503,0.000,0.000,0.000,0,0,0,0,0.00,nan,4,3,1,nan,3,3,24,1,1,8,8,0,0,0,3796983809,0.03638,0.00513,0.95557,0.95627,-0.00612,-0.00055,-0.00167,0.00637,0.95627,0.00324,0.00637,3,12228,0,6244,0.00000,0.00000,0.00000,0,0,nan,0,0,0,4337,187491,0,0,0.000,0.000,0.000,0,0.000,0.000,0.000,0,0,4,0,0
PPG,1,94857,3795831552,25,480,505,0.000,0.000,0.000,0,0,0,0,0.00,nan,4,3,1,nan,3,3,24,1,1,9,9,0,0,0,3797022659,0.03979,0.00366,0.94922,0.95006,-0.00612,-0.00135,-0.00141,0.00642,0.95252,0.01023,0.00642,3,12243,0,6244,0.00000,0.00000,0.00000,0,0,nan,0,0,0,2647,187491,0,0,0.000,0.000,0.000,0,0.000,0.000,0.000,0,0,4,0,0
PPG,1,94858,3795871552,39,497,508,0.000,0.000,0.000,0,0,0,0,0.00,nan,4,3,1,nan,3,3,24,1,1,10,10,0,0,0,3797064153,0.03784,0.00806,0.95313,0.95391,-0.00558,-0.00108,-0.00114,0.00580,0.95391,0.00186,0.00644,3,12137,0,6244,0.00000,0.00000,0.00000,0,0,nan,0,0,0,4307,187491,0,0,0.000,0.000,0.000,0,0.000,0.000,0.000,0,0,4,0,0
PPG,1,94859,3795911552,25,493,515,0.000,0.000,0.000,0,0,0,0,0.00,nan,4,3,1,nan,3,3,24,1,1,11,11,0,0,0,3797102948,0.03418,0.00732,0.94946,0.95011,-0.00638,-0.00108,-0.00167,0.00669,0.95537,0.00312,0.00669,3,12114,0,6244,0.00000,0.00000,0.00000,0,0,nan,0,0,0,2594,187491,0,0,0.000,0.000,0.000,0,0.000,0.000,0.000,0,0,4,0,0
PPG,1,94860,3795951552,25,495,506,0.000,0.000,0.000,0,0,0,0,0.00,nan,4,3,1,nan,3,3,24,1,1,12,12,0,0,0,3797144085,0.03833,0.01025,0.95459,0.95541,-0.00585,-0.00081,-0.00141,0.00607,0.95541,0.00501,0.00693,3,12125,0,6244,0.00000,0.00000,0.00000,0,0,nan,0,0,0,4308,187491,0,0,0.000,0.000,0.000,0,0.000,0.000,0.000,0,0,4,0,0
PPG,1,94861,3795991552,25,506,523,0.000,0.000,0.000,0,0,0,0,0.00,nan,4,3,1,nan,3,3,24,1,1,13,13,0,0,0,3797182649,0.03931,0.01221,0.95020,0.95109,-0.00532,-0.00055,-0.00194,0.00569,0.95343,0.00346,0.00635,3,12121,0,6244,0.00000,0.00000,0.00000,0,0,nan,0,0,0,2606,187491,0,0,0.000,0.000,0.000,0,0.000,0.000,0.000,0,0,4,0,0
PPG,1,94862,3796031552,25,490,509,0.000,0.000,0.000,0,0,0,0,0.00,nan,4,3,1,nan,3,3,24,1,1,14,14,0,0,0,3797223774,0.03809,0.00659,0.95068,0.95147,-0.00638,-0.00055,-0.00221,0.00678,0.95381,0.00272,0.00678,3,12125,0,6244,0.00000,0.00000,0.00000,0,0,nan,0,0,0,4317,187491,0,0,0.000,0.000,0.000,0,0.000,0.000,0.000,0,0,4,0,0
PPG,1,94863,3796071552,26,479,500,0.000,0.000,0.000,0,0,0,0,0.00,nan,4,3,1,nan,3,3,24,1,1,15,15,0,0,0,3797262376,0.04004,0.00269,0.95044,0.95129,-0.00585,-0.00055,-0.00114,0.00599,0.95526,0.00379,0.00642,3,12186,0,6244,0.00000,0.00000,0.00000,0,0,nan,0,0,0,2605,187491,0,0,0.000,0.000,0.000,0,0.000,0.000,0.000,0,0,4,0,0
PPG,1,94864,3796111552,25,487,503,0.000,0.000,0.000,0,0,0,0,0.00,nan,4,3,1,nan,3,3,24,1,1,16,16,0,0,0,3797303487,0.03833,0.00439,0.94873,0.94951,-0.00505,-0.00001,-0.00141,0.00524,0.95387,0.00611,0.00659,3,12115,0,6244,0.00000,0.00000,0.00000,0,0,nan,0,0,0,4297,187491,0,0,0.000,0.000,0.000,0,0.000,0.000,0.000,0,0,4,0,0
PPG,1,94865,3796151552,25,498,509,0.000,0.000,0.000,0,0,0,0,0.00,nan,4,3,1,nan,3,3,24,1,1,17,17,0,0,0,3797341996,0.03833,0.00244,0.95093,0.95170,-0.00612,-0.00055,-0.00194,0.00644,0.95170,0.00507,0.00644,3,12118,0,6244,0.00000,0.00000,0.00000,0,0,nan,0,0,0,2599,187491,0,0,0.000,0.000,0.000,0,0.000,0.000,0.000,0,0,4,0,0
PPG,1,94866,3796191552,25,503,514,0.000,0.000,0.000,0,0,0,0,0.00,nan,4,3,1,nan,3,3,24,1,1,18,18,0,0,0,3797383153,0.03735,0.00464,0.95166,0.95240,-0.00558,0.00052,-0.00167,0.00585,0.95295,0.00783,0.00635,3,12113,0,6244,0.00000,0.00000,0.00000,0,0,nan,0,0,0,4307,187491,0,0,0.000,0.000,0.000,0,0.000,0.000,0.000,0,0,4,0,0
PPG,1,94867,3796231552,25,497,515,0.000,0.000,0.000,0,0,0,0,0.00,nan,4,3,1,nan,3,3,24,1,1,19,19,0,0,0,3797421687,0.04053,0.00684,0.94897,0.94986,-0.00612,-0.00028,-0.00194,0.00642,0.95854,0.00770,0.00662,3,12128,0,6244,0.00000,0.00000,0.00000,0,0,nan,0,0,0,2621,187491,0,0,0.000,0.000,0.000,0,0.000,0.000,0.000,0,0,4,0,0
PPG,1,94868,3796271552,25,479,504,0.000,0.000,0.000,0,0,0,0,0.00,nan,4,3,1,nan,3,3,24,1,1,20,20,0,0,0,3797462870,0.04004,0.00439,0.95142,0.95227,-0.00558,0.00079,0.00019,0.00564,0.95431,0.00374,0.00671,3,12154,0,6244,0.00000,0.00000,0.00000,0,0,nan,0,0,0,2610,187491,0,0,0.000,0.000,0.000,0,0.000,0.000,0.000,0,0,4,0,0
PPG,1,94869,3796311552,25,484,497,0.000,0.000,0.000,0,0,0,0,0.00,nan,4,3,1,nan,3,3,24,1,1,21,21,0,0,0,3797504006,0.03955,0.00439,0.95190,0.95274,-0.00585,-0.00028,-0.00194,0.00617,0.95510,0.00283,0.00617,3,12107,0,6244,0.00000,0.00000,0.00000,0,0,nan,0,0,0,4298,187491,0,0,0.000,0.000,0.000,0,0.000,0.000,0.000,0,0,4,0,0
PPG,1,94870,3796351552,26,501,506,0.000,0.000,0.000,0,0,0,0,0.00,nan,4,3,1,nan,3,3,24,1,1,22,22,0,0,0,3797542511,0.04419,0.00562,0.95337,0.95441,-0.00558,-0.00295,-0.00141,0.00647,0.95564,0.00576,0.00647,3,12112,0,6244,0.00000,0.00000,0.00000,0,0,nan,0,0,0,2603,187491,0,0,0.000,0.000,0.000,0,0.000,0.000,0.000,0,0,4,0,0
PPG,1,94871,3796391552,27,494,508,0.000,0.000,0.000,0,0,0,0,0.00,nan,4,3,1,nan,3,3,24,1,1,23,23,0,0,0,3797588495,0.03906,0.00317,0.95117,0.95198,-0.00585,-0.00001,-0.00087,0.00592,0.95676,0.00288,0.00680,3,12334,0,6244,0.00000,0.00000,0.00000,0,0,nan,0,0,0,2641,187491,0,0,0.000,0.000,0.000,0,0.000,0.000,0.000,0,0,4,0,0
PPG,1,94872,3796431552,25,500,501,0.000,0.000,0.000,0,0,0,0,0.00,nan,4,3,1,nan,3,3,24,1,1,24,24,0,0,0,3797624692,0.03931,0.00977,0.94946,0.95033,-0.00585,0.00052,-0.00141,0.00604,0.95353,0.00268,0.00649,3,12196,0,6244,0.00000,0.00000,0.00000,0,0,nan,0,0,0,4299,187491,0,0,0.000,0.000,0.000,0,0.000,0.000,0.000,0,0,4,0,0
PPG,1,94873,3796471552,25,496,505,0.000,0.000,0.000,0,0,0,0,0.00,nan,4,3,1,nan,3,3,24,1,1,25,25,0,0,0,3797663234,0.03784,0.00415,0.94385,0.94462,-0.00558,0.00212,-0.00061,0.00600,0.96227,0.01765,0.00794,3,12118,0,6244,0.00000,0.00000,0.00000,0,0,nan,0,0,0,4311,187491,0,0,0.000,0.000,0.000,0,0.000,0.000,0.000,0,0,4,0,0
PPG,1,94874,3796511552,25,490,509,0.000,0.000,0.000,0,0,0,0,0.00,nan,4,3,1,nan,3,3,24,1,1,26,26,0,0,0,3797701852,0.04517,0.00684,0.95215,0.95324,-0.00665,-0.00588,-0.00141,0.00899,0.95886,0.01231,0.00899,3,12111,0,6244,0.00000,0.00000,0.00000,0,0,nan,0,0,0,2598,187491,0,0,0.000,0.000,0.000,0,0.000,0.000,0.000,0,0,4,0,0
PPG,1,94875,3796551552,26,492,491,0.000,0.000,0.000,0,0,0,0,0.00,nan,4,3,1,nan,3,3,24,1,1,27,27,0,0,0,3797742955,0.03931,0.00879,0.95508,0.95593,-0.00532,-0.00161,-0.00194,0.00589,0.95593,0.00289,0.00678,3,12118,0,6244,0.00000,0.00000,0.00000,0,0,nan,0,0,0,2599,187491,0,0,0.000,0.000,0.000,0,0.000,0.000,0.000,0,0,4,0,0
PPG,1,94876,3796591552,29,491,505,0.000,0.000,0.000,0,0,0,0,0.00,nan,4,3,1,nan,3,3,24,1,1,28,28,0,0,0,3797784116,0.04028,0.00659,0.95093,0.95180,-0.00585,-0.00001,-0.00247,0.00635,0.95557,0.00377,0.00660,3,12141,0,6244,0.00000,0.00000,0.00000,0,0,nan,0,0,0,4300,187491,0,0,0.000,0.000,0.000,0,0.000,0.000,0.000,0,0,4,0,0
PPG,1,94877,3796631552,25,498,504,0.000,0.000,0.000,0,0,0,0,0.00,nan,4,3,1,nan,3,3,24,1,1,29,29,0,0,0,3797822626,0.04175,0.00854,0.95483,0.95578,-0.00558,0.00025,-0.00141,0.00576,0.95578,0.00731,0.00676,3,12117,0,6244,0.00000,0.00000,0.00000,0,0,nan,0,0,0,2595,187491,0,0,0.000,0.000,0.000,0,0.000,0.000,0.000,0,0,4,0,0
PPG,1,94878,3796671552,26,497,520,0.000,0.000,0.000,0,0,0,0,0.00,nan,4,3,1,nan,3,3,24,1,1,30,30,0,0,0,3797863721,0.03394,0.00732,0.95752,0.95815,-0.00612,-0.00001,-0.00141,0.00628,0.95815,0.00683,0.00680,3,12115,0,6244,0.00000,0.00000,0.00000,0,0,nan,0,0,0,4298,187491,0,0,0.000,0.000,0.000,0,0.000,0.000,0.000,0,0,4,0,0
PPG,1,94879,3796711552,26,496,515,0.000,0.000,0.000,0,0,0,0,0.00,nan,4,3,1,nan,3,3,24,1,1,31,31,0,0,0,3797902275,0.04004,0.00317,0.95459,0.95543,-0.00585,-0.00081,-0.00167,0.00614,0.95574,0.00298,0.00658,3,12139,0,6244,0.00000,0.00000,0.00000,0,0,nan,0,0,0,2595,187491,0,0,0.000,0.000,0.000,0,0.000,0.000,0.000,0,0,4,0,0
PPG,1,94880,3796751552,25,494,514,0.000,0.000,0.000,0,0,0,0,0.00,nan,4,3,1,nan,3,3,24,1,1,0,0,0,0,0,3797943376,0.03931,0.00415,0.94653,0.94736,-0.00505,-0.00028,-0.00221,0.00552,0.95410,0.00674,0.00580,3,12112,0,6244,0.00000,0.00000,0.00000,0,0,nan,0,0,0,4297,187491,0,0,0.000,0.000,0.000,0,0.000,0.000,0.000,0,0,4,0,0
PPG,1,94881,3796791552,25,490,510,0.000,0.000,0.000,0,0,0,0,0.00,nan,4,3,1,nan,3,3,24,1,1,1,1,0,0,0,3797981907,0.03711,0.00903,0.95874,0.95950,-0.00505,-0.00135,-0.00221,0.00567,0.95950,0.00863,0.00605,3,12158,0,6244,0.00000,0.00000,0.00000,0,0,nan,0,0,0,2595,187491,0,0,0.000,0.000,0.000,0,0.000,0.000,0.000,0,0,4,0,0
PPG,1,94882,3796831552,25,479,487,0.000,0.000,0.000,0,0,0,0,0.00,nan,4,3,1,nan,3,3,24,1,1,2,2,0,0,0,3798022991,0.03809,0.00439,0.94678,0.94755,-0.00585,0.00025,-0.00221,0.00626,0.95433,0.00517,0.00626,3,12106,0,6244,0.00000,0.00000,0.00000,0,0,nan,0,0,0,2599,187491,0,0,0.000,0.000,0.000,0,0.000,0.000,0.000,0,0,4,0,0
PPG,1,94883,3796871552,26,500,497,0.000,0.000,0.000,0,0,0,0,0.00,nan,4,3,1,nan,3,3,24,1,1,3,3,0,0,0,3798064097,0.04248,0.00830,0.95020,0.95118,-0.00612,-0.00028,-0.00167,0.00635,0.95501,0.00746,0.00635,3,12121,0,6244,0.00000,0.00000,0.00000,0,0,nan,0,0,0,4299,187491,0,0,0.000,0.000,0.000,0,0.000,0.000,0.000,0,0,4,0,0
PPG,1,94884,3796911552,25,497,505,0.000,0.000,0.000,0,0,0,0,0.00,nan,4,3,1,nan,3,3,24,1,1,4,4,0,0,0,3798102625,0.03784,0.00659,0.95264,0.95341,-0.00612,-0.00108,-0.00087,0.00627,0.95630,0.00512,0.00669,3,12113,0,6244,0.00000,0.00000,0.00000,0,0,nan,0,0,0,2595,187491,0,0,0.000,0.000,0.000,0,0.000,0.000,0.000,0,0,4,0,0
PPG,1,94885,3796951552,26,505,508,0.000,0.000,0.000,0,0,0,0,0.00,nan,4,3,1,nan,3,3,24,1,1,5,5,0,0,0,3798143721,0.03711,0.00537,0.95166,0.95240,-0.00665,0.00025,-0.00167,0.00686,0.95933,0.00592,0.00706,3,12116,0,6244,0.00000,0.00000,0.00000,0,0,nan,0,0,0,4306,187491,0,0,0.000,0.000,0.000,0,0.000,0.000,0.000,0,0,4,0,0
PPG,1,94886,3796991552,26,495,516,0.000,0.000,0.000,0,0,0,0,0.00,nan,4,3,1,nan,3,3,24,1,1,6,6,0,0,0,3798182272,0.03809,0.00781,0.94800,0.94880,-0.00612,-0.00135,-0.00114,0.00637,0.95191,0.00396,0.00745,3,12152,0,6244,0.00000,0.00000,0.00000,0,0,nan,0,0,0,2595,187491,0,0,0.000,0.000,0.000,0,0.000,0.000,0.000,0,0,4,0,0
PPG,1,94887,3797031552,25,490,515,0.000,0.000,0.000,0,0,0,0,0.00,nan,4,3,1,nan,3,3,24,1,1,7,7,0,0,0,3798223390,0.04028,0.00781,0.95190,0.95279,-0.00585,-0.00028,-0.00087,0.00592,0.95458,0.00300,0.00738,3,12115,0,6244,0.00000,0.00000,0.00000,0,0,nan,0,0,0,4294,187491,0,0,0.000,0.000,0.000,0,0.000,0.000,0.000,0,0,4,0,0
PPG,1,94888,3797071552,26,483,501,0.000,0.000,0.000,0,0,0,0,0.00,nan,4,3,1,nan,3,3,24,1,1,8,8,0,0,0,3798261880,0.03979,0.00708,0.95190,0.95276,-0.00638,0.00052,-0.00247,0.00687,0.95459,0.00180,0.00710,3,12113,0,6244,0.00000,0.00000,0.00000,0,0,nan,0,0,0,2595,187491,0,0,0.000,0.000,0.000,0,0.000,0.000,0.000,0,0,4,0,0
PPG,1,94889,3797111552,25,480,505,0.000,0.000,0.000,0,0,0,0,0.00,nan,4,3,1,nan,3,3,24,1,1,9,9,0,0,0,3798302999,0.03857,0.00708,0.94897,0.94978,-0.00612,0.00052,-0.00194,0.00644,0.95634,0.00655,0.00644,3,12108,0,6244,0.00000,0.00000,0.00000,0,0,nan,0,0,0,2597,187491,0,0,0.000,0.000,0.000,0,0.000,0.000,0.000,0,0,4,0,0
PPG,1,94890,3797151552,25,491,500,0.000,0.000,0.000,0,0,0,0,0.00,nan,4,3,1,nan,3,3,24,1,1,10,10,0,0,0,3798344104,0.03833,0.00732,0.94824,0.94904,-0.00638,-0.00081,-0.00167,0.00665,0.95909,0.00930,0.00665,3,12120,0,6244,0.00000,0.00000,0.00000,0,0,nan,0,0,0,4298,187491,0,0,0.000,0.000,0.000,0,0.000,0.000,0.000,0,0,4,0,0
PPG,1,94891,3797191552,25,486,513,0.000,0.000,0.000,0,0,0,0,0.00,nan,4,3,1,nan,3,3,24,1,1,11,11,0,0,0,3798382641,0.04126,0.00562,0.95825,0.95916,-0.00638,-0.00108,-0.00167,0.00669,0.95916,0.01397,0.00673,3,12148,0,6244,0.00000,0.00000,0.00000,0,0,nan,0,0,0,2615,187491,0,0,0.000,0.000,0.000,0,0.000,0.000,0.000,0,0,4,0,0
PPG,1,94892,3797231552,25,485,499,0.000,0.000,0.000,0,0,0,0,0.00,nan,4,3,1,nan,3,3,24,1,1,12,12,0,0,0,3798423766,0.03809,0.00586,0.95190,0.95268,-0.00612,-0.00081,-0.00167,0.00639,0.95617,0.01243,0.00687,3,12120,0,6244,0.00000,0.00000,0.00000,0,0,nan,0,0,0,4299,187491,0,0,0.000,0.000,0.000,0,0.000,0.000,0.000,0,0,4,0,0
PPG,1,94893,3797271552,26,505,517,0.000,0.000,0.000,0,0,0,0,0.00,nan,4,3,1,nan,3,3,24,1,1,13,13,0,0,0,3798462277,0.03638,0.01001,0.94287,0.94363,-0.00665,0.00025,-0.00141,0.00680,0.95125,0.00748,0.00680,3,12121,0,6244,0.00000,0.00000,0.00000,0,0,nan,0,0,0,2595,187491,0,0,0.000,0.000,0.000,0,0.000,0.000,0.000,0,0,4,0,0
PPG,1,94894,3797311552,26,496,514,0.000,0.000,0.000,0,0,0,0,0.00,nan,4,3,1,nan,3,3,24,1,1,14,14,0,0,0,3798503430,0.03955,0.00269,0.95288,0.95371,-0.00425,-0.00001,-0.00194,0.00467,0.95768,0.01405,0.00568,3,12112,0,6244,0.00000,0.00000,0.00000,0,0,nan,0,0,0,4302,187491,0,0,0.000,0.000,0.000,0,0.000,0.000,0.000,0,0,4,0,0
PPG,1,94895,3797351552,25,486,504,0.000,0.000,0.000,0,0,0,0,0.00,nan,4,3,1,nan,3,3,24,1,1,15,15,0,0,0,3798541940,0.03589,0.00757,0.95483,0.95554,-0.00612,-0.00055,-0.00194,0.00644,0.95554,0.00596,0.00644,3,12108,0,6244,0.00000,0.00000,0.00000,0,0,nan,0,0,0,2595,187491,0,0,0.000,0.000,0.000,0,0.000,0.000,0.000,0,0,4,0,0
PPG,1,94896,3797391552,24,478,495,0.000,0.000,0.000,0,0,0,0,0.00,nan,4,3,1,nan,3,3,24,1,1,16,16,0,0,0,3798587228,0.04077,0.00439,0.94751,0.94840,-0.00612,-0.00001,-0.00141,0.00628,0.94999,0.00555,0.00680,3,12190,0,6244,0.00000,0.00000,0.00000,0,0,nan,0,0,0,2599,187491,0,0,0.000,0.000,0.000,0,0.000,0.000,0.000,0,0,4,0,0
PPG,1,94897,3797431552,25,495,497,0.000,0.000,0.000,0,0,0,0,0.00,nan,4,3,1,nan,3,3,24,1,1,17,17,0,0,0,3798625794,0.04150,0.00610,0.94580,0.94673,-0.00532,-0.00161,-0.00141,0.00573,0.95434,0.00761,0.00615,3,12113,0,6244,0.00000,0.00000,0.00000,0,0,nan,0,0,0,4306,187491,0,0,0.000,0.000,0.000,0,0.000,0.000,0.000,0,0,4,0,0
PPG,1,94898,3797471552,25,497,508,0.000,0.000,0.000,0,0,0,0,0.00,nan,4,3,1,nan,3,3,24,1,1,18,18,0,0,0,3798664341,0.04004,0.00781,0.95020,0.95107,-0.00558,-0.00055,-0.00141,0.00578,0.95204,0.00531,0.00611,3,12109,0,6244,0.00000,0.00000,0.00000,0,0,nan,0,0,0,4300,187491,0,0,0.000,0.000,0.000,0,0.000,0.000,0.000,0,0,4,0,0
PPG,1,94899,3797511552,26,507,519,0.000,0.000,0.000,0,0,0,0,0.00,nan,4,3,1,nan,3,3,24,1,1,19,19,0,0,0,3798703032,0.03564,0.00366,0.95264,0.95331,-0.00638,-0.00135,-0.00114,0.00662,0.95331,0.00768,0.00688,3,12283,0,6244,0.00000,0.00000,0.00000,0,0,nan,0,0,0,2600,187491,0,0,0.000,0.000,0.000,0,0.000,0.000,0.000,0,0,4,0,0
PPG,1,94900,3797551552,25,484,501,0.000,0.000,0.000,0,0,0,0,0.00,nan,4,3,1,nan,3,3,24,1,1,20,20,0,0,0,3798744255,0.04321,0.00415,0.95313,0.95411,-0.00585,-0.00135,-0.00061,0.00603,0.95532,0.00201,0.00636,3,12244,0,6244,0.00000,0.00000,0.00000,0,0,nan,0,0,0,4343,187491,0,0,0.000,0.000,0.000,0,0.000,0.000,0.000,0,0,4,0,0
PPG,1,94901,3797591552,25,494,503,0.000,0.000,0.000,0,0,0,0,0.00,nan,4,3,1,nan,3,3,24,1,1,21,21,0,0,0,3798782814,0.03662,0.00171,0.94727,0.94797,-0.00558,0.00025,-0.00034,0.00560,0.95584,0.00787,0.00716,3,12125,0,6244,0.00000,0.00000,0.00000,0,0,nan,0,0,0,2699,187491,0,0,0.000,0.000,0.000,0,0.000,0.000,0.000,0,0,4,0,0
PPG,1,94902,3797631552,26,504,513,0.000,0.000,0.000,0,0,0,0,0.00,nan,4,3,1,nan,3,3,24,1,1,22,22,0,0,0,3798824473,0.03906,0.00977,0.95215,0.95300,-0.00558,-0.00055,-0.00194,0.00594,0.95625,0.00828,0.00620,3,12246,0,6244,0.00000,0.00000,0.00000,0,0,nan,0,0,0,4335,187491,0,0,0.000,0.000,0.000,0,0.000,0.000,0.000,0,0,4,0,0
PPG,1,94903,3797671552,26,491,513,0.000,0.000,0.000,0,0,0,0,0.00,nan,4,3,1,nan,3,3,24,1,1,23,23,0,0,0,3798863385,0.03931,0.00806,0.94971,0.95055,-0.00532,-0.00108,-0.00087,0.00550,0.95658,0.00603,0.00614,3,12259,0,6244,0.00000,0.00000,0.00000,0,0,nan,0,0,0,4337,187491,0,0,0.000,0.000,0.000,0,0.000,0.000,0.000,0,0,4,0,0
PPG,1,94904,3797711552,29,491,511,0.000,0.000,0.000,0,0,0,0,0.00,nan,4,3,1,nan,3,3,24,1,1,24,24,0,0,0,3798902261,0.04077,0.00562,0.94873,0.94962,-0.00612,-0.00055,-0.00221,0.00653,0.95493,0.00438,0.00653,3,12265,0,6244,0.00000,0.00000,0.00000,0,0,nan,0,0,0,2634,187491,0,0,0.000,0.000,0.000,0,0.000,0.000,0.000,0,0,4,0,0
PPG,1,94905,3797751552,28,492,516,0.000,0.000,0.000,0,0,0,0,0.00,nan,4,3,1,nan,3,3,24,1,1,25,25,0,0,0,3798943838,0.03979,0.01050,0.94702,0.94792,-0.00692,0.00052,-0.00141,0.00708,0.95072,0.00202,0.00721,3,12243,0,6244,0.00000,0.00000,0.00000,0,0,nan,0,0,0,4337,187491,0,0,0.000,0.000,0.000,0,0.000,0.000,0.000,0,0,4,0,0
PPG,1,94906,3797791552,26,492,503,0.000,0.000,0.000,0,0,0,0,0.00,nan,4,3,1,nan,3,3,24,1,1,26,26,0,0,0,3798982668,0.03589,0.00317,0.95435,0.95503,-0.00665,-0.00028,-0.00034,0.00666,0.96250,0.01093,0.00668,3,12253,0,6244,0.00000,0.00000,0.00000,0,0,nan,0,0,0,2635,187491,0,0,0.000,0.000,0.000,0,0.000,0.000,0.000,0,0,4,0,0
PPG,1,94907,3797831552,26,490,492,0.000,0.000,0.000,0,0,0,0,0.00,nan,4,3,1,nan,3,3,24,1,1,27,27,0,0,0,3799024187,0.04102,0.00928,0.95264,0.95356,-0.00585,-0.00215,-0.00167,0.00645,0.95803,0.00780,0.00661,3,12242,0,6244,0.00000,0.00000,0.00000,0,0,nan,0,0,0,4332,187491,0,0,0.000,0.000,0.000,0,0.000,0.000,0.000,0,0,4,0,0
PPG,1,94908,3797871552,25,491,506,0.000,0.000,0.000,0,0,0,0,0.00,nan,4,3,1,nan,3,3,24,1,1,28,28,0,0,0,3799062961,0.04053,0.00708,0.95142,0.95231,-0.00612,-0.00001,-0.00114,0.00622,0.95231,0.00608,0.00687,3,12197,0,6244,0.00000,0.00000,0.00000,0,0,nan,0,0,0,2634,187491,0,0,0.000,0.000,0.000,0,0.000,0.000,0.000,0,0,4,0,0
PPG,1,94909,3797911552,26,501,508,0.000,0.000,0.000,0,0,0,0,0.00,nan,4,3,1,nan,3,3,24,1,1,29,29,0,0,0,3799104610,0.03857,0.00415,0.95313,0.95391,-0.00585,-0.00081,-0.00114,0.00602,0.95391,0.00198,0.00602,3,12317,0,6244,0.00000,0.00000,0.00000,0,0,nan,0,0,0,4351,187491,0,0,0.000,0.000,0.000,0,0.000,0.000,0.000,0,0,4,0,0
PPG,1,94910,3797951552,33,491,511,0.000,0.000,0.000,0,0,0,0,0.00,nan,4,3,1,nan,3,3,24,1,1,30,30,0,0,0,3799143430,0.03979,0.00244,0.95776,0.95859,-0.00532,-0.00028,-0.00114,0.00545,0.95859,0.00748,0.00545,3,12190,0,6244,0.00000,0.00000,0.00000,0,0,nan,0,0,0,2625,187491,0,0,0.000,0.000,0.000,0,0.000,0.000,0.000,0,0,4,0,0
PPG,1,94911,3797991552,25,488,511,0.000,0.000,0.000,0,0,0,0,0.00,nan,4,3,1,nan,3,3,24,1,1,31,31,0,0,0,3799184905,0.03882,0.00854,0.95581,0.95664,-0.00532,-0.00055,-0.00114,0.00547,0.95664,0.01033,0.00618,3,12233,0,6244,0.00000,0.00000,0.00000,0,0,nan,0,0,0,4331,187491,0,0,0.000,0.000,0.000,0,0.000,0.000,0.000,0,0,4,0,0
PPG,1,94912,3798031552,25,479,506,0.000,0.000,0.000,0,0,0,0,0.00,nan,4,3,1,nan,3,3,24,1,1,0,0,0,0,0,3799223790,0.03735,0.00928,0.95264,0.95341,-0.00585,-0.00001,-0.00221,0.00625,0.95443,0.00236,0.00625,3,12257,0,6244,0.00000,0.00000,0.00000,0,0,nan,0,0,0,4353,187491,0,0,0.000,0.000,0.000,0,0.000,0.000,0.000,0,0,4,0,0
PPG,1,94913,3798071552,25,484,507,0.000,0.000,0.000,0,0,0,0,0.00,nan,4,3,1,nan,3,3,24,1,1,1,1,0,0,0,3799262621,0.04028,-0.00073,0.94922,0.95007,-0.00558,-0.00001,-0.00141,0.00576,0.95189,0.00291,0.00614,3,12201,0,6244,0.00000,0.00000,0.00000,0,0,nan,0,0,0,2627,187491,0,0,0.000,0.000,0.000,0,0.000,0.000,0.000,0,0,4,0,0
PPG,1,94914,3798111552,25,487,495,0.000,0.000,0.000,0,0,0,0,0.00,nan,4,3,1,nan,3,3,24,1,1,2,2,0,0,0,3799304062,0.04321,0.00391,0.95361,0.95460,-0.00585,-0.00055,-0.00114,0.00599,0.95460,0.00671,0.00599,3,12257,0,6244,0.00000,0.00000,0.00000,0,0,nan,0,0,0,4358,187491,0,0,0.000,0.000,0.000,0,0.000,0.000,0.000,0,0,4,0,0
PPG,1,94915,3798151552,25,491,509,0.000,0.000,0.000,0,0,0,0,0.00,nan,4,3,1,nan,3,3,24,1,1,3,3,0,0,0,3799342933,0.03955,0.00488,0.94604,0.94688,-0.00585,-0.00161,-0.00167,0.00630,0.95355,0.00667,0.00699,3,12244,0,6244,0.00000,0.00000,0.00000,0,0,nan,0,0,0,2623,187491,0,0,0.000,0.000,0.000,0,0.000,0.000,0.000,0,0,4,0,0
PPG,1,94916,3798191552,25,499,496,0.000,0.000,0.000,0,0,0,0,0.00,nan,4,3,1,nan,3,3,24,1,1,4,4,0,0,0,3799384407,0.03735,0.00732,0.95581,0.95657,-0.00612,-0.00161,-0.00141,0.00648,0.96044,0.00779,0.00648,3,12263,0,6244,0.00000,0.00000,0.00000,0,0,nan,0,0,0,4321,187491,0,0,0.000,0.000,0.000,0,0.000,0.000,0.000,0,0,4,0,0
PPG,1,94917,3798231552,25,491,509,0.000,0.000,0.000,0,0,0,0,0.00,nan,4,3,1,nan,3,3,24,1,1,5,5,0,0,0,3799423155,0.03809,0.00537,0.94922,0.95000,-0.00612,0.00025,-0.00221,0.00651,0.95133,0.00858,0.00689,3,12141,0,6244,0.00000,0.00000,0.00000,0,0,nan,0,0,0,2604,187491,0,0,0.000,0.000,0.000,0,0.000,0.000,0.000,0,0,4,0,0
PPG,1,94918,3798271552,25,481,506,0.000,0.000,0.000,0,0,0,0,0.00,nan,4,3,1,nan,3,3,24,1,1,6,6,0,0,0,3799464498,0.03857,0.00366,0.94800,0.94879,-0.00452,-0.00028,-0.00114,0.00467,0.95353,0.00442,0.00609,3,12113,0,6244,0.00000,0.00000,0.00000,0,0,nan,0,0,0,4294,187491,0,0,0.000,0.000,0.000,0,0.000,0.000,0.000,0,0,4,0,0
PPG,1,94919,3798311552,25,500,516,0.000,0.000,0.000,0,0,0,0,0.00,nan,4,3,1,nan,3,3,24,1,1,7,7,0,0,0,3799503022,0.03613,0.00342,0.94922,0.94991,-0.00585,0.00025,-0.00141,0.00602,0.95202,0.00494,0.00656,3,12110,0,6244,0.00000,0.00000,0.00000,0,0,nan,0,0,0,2613,187491,0,0,0.000,0.000,0.000,0,0.000,0.000,0.000,0,0,4,0,0
PPG,1,94920,3798351552,25,503,514,0.000,0.000,0.000,0,0,0,0,0.00,nan,4,3,1,nan,3,3,24,1,1,8,8,0,0,0,3799544173,0.03735,0.00635,0.95801,0.95876,-0.00612,-0.00108,-0.00087,0.00627,0.95876,0.00563,0.00658,3,12160,0,6244,0.00000,0.00000,0.00000,0,0,nan,0,0,0,4299,187491,0,0,0.000,0.000,0.000,0,0.000,0.000,0.000,0,0,4,0,0
PPG,1,94921,3798391552,24,487,517,0.000,0.000,0.000,0,0,0,0,0.00,nan,4,3,1,nan,3,3,24,1,1,9,9,0,0,0,3799586850,0.04224,0.00732,0.95557,0.95653,-0.00558,-0.00108,-0.00114,0.00580,0.95653,0.00577,0.00651,3,12152,0,6244,0.00000,0.00000,0.00000,0,0,nan,0,0,0,2588,187491,0,0,0.000,0.000,0.000,0,0.000,0.000,0.000,0,0,4,0,0
PPG,1,94922,3798431552,25,488,506,0.000,0.000,0.000,0,0,0,0,0.00,nan,4,3,1,nan,3,3,24,1,1,10,10,0,0,0,3799625498,0.03784,0.00659,0.95093,0.95170,-0.00558,0.00105,-0.00087,0.00575,0.95608,0.00550,0.00679,3,12179,0,6244,0.00000,0.00000,0.00000,0,0,nan,0,0,0,4294,187491,0,0,0.000,0.000,0.000,0,0.000,0.000,0.000,0,0,4,0,0
PPG,1,94923,3798471552,26,491,497,0.000,0.000,0.000,0,0,0,0,0.00,nan,4,3,1,nan,3,3,24,1,1,11,11,0,0,0,3799664006,0.03735,0.00293,0.95703,0.95776,-0.00532,-0.00081,-0.00167,0.00563,0.95776,0.00921,0.00645,3,12107,0,6244,0.00000,0.00000,0.00000,0,0,nan,0,0,0,4294,187491,0,0,0.000,0.000,0.000,0,0.000,0.000,0.000,0,0,4,0,0
PPG,1,94924,3798511552,25,494,510,0.000,0.000,0.000,0,0,0,0,0.00,nan,4,3,1,nan,3,3,24,1,1,12,12,0,0,0,3799702512,0.03882,0.00806,0.96045,0.96127,-0.00558,-0.00081,-0.00221,0.00606,0.96127,0.01501,0.00606,3,12112,0,6244,0.00000,0.00000,0.00000,0,0,nan,0,0,0,2595,187491,0,0,0.000,0.000,0.000,0,0.000,0.000,0.000,0,0,4,0,0
PPG,1,94925,3798551552,25,491,514,0.000,0.000,0.000,0,0,0,0,0.00,nan,4,3,1,nan,3,3,24,1,1,13,13,0,0,0,3799743628,0.04199,0.00269,0.95215,0.95308,-0.00558,-0.00055,-0.00114,0.00573,0.95567,0.01103,0.00592,3,12116,0,6244,0.00000,0.00000,0.00000,0,0,nan,0,0,0,4296,187491,0,0,0.000,0.000,0.000,0,0.000,0.000,0.000,0,0,4,0,0
PPG,1,94926,3798591552,26,501,519,0.000,0.000,0.000,0,0,0,0,0.00,nan,4,3,1,nan,3,3,24,1,1,14,14,0,0,0,3799782126,0.04004,0.00586,0.95361,0.95447,-0.00479,-0.00161,-0.00141,0.00524,0.95469,0.00443,0.00616,3,12110,0,6244,0.00000,0.00000,0.00000,0,0,nan,0,0,0,2596,187491,0,0,0.000,0.000,0.000,0,0.000,0.000,0.000,0,0,4,0,0
PPG,1,94927,3798631552,25,489,517,0.000,0.000,0.000,0,0,0,0,0.00,nan,4,3,1,nan,3,3,24,1,1,15,15,0,0,0,3799823280,0.04004,0.00562,0.94946,0.95032,-0.00585,-0.00108,-0.00194,0.00626,0.95205,0.00438,0.00626,3,12164,0,6244,0.00000,0.00000,0.00000,0,0,nan,0,0,0,2595,187491,0,0,0.000,0.000,0.000,0,0.000,0.000,0.000,0,0,4,0,0
PPG,1,94928,3798671552,25,486,506,0.000,0.000,0.000,0,0,0,0,0.00,nan,4,3,1,nan,3,3,24,1,1,16,16,0,0,0,3799864433,0.03979,0.00610,0.95483,0.95568,-0.00532,0.00052,-0.00247,0.00589,0.95895,0.00661,0.00731,3,12133,0,6244,0.00000,0.00000,0.00000,0,0,nan,0,0,0,4301,187491,0,0,0.000,0.000,0.000,0,0.000,0.000,0.000,0,0,4,0,0
PPG,1,94929,3798711552,25,493,501,0.000,0.000,0.000,0,0,0,0,0.00,nan,4,3,1,nan,3,3,24,1,1,17,17,0,0,0,3799939090,0.04102,0.00342,0.95093,0.95182,-0.00505,-0.00028,-0.00167,0.00533,0.95182,0.00622,0.00614,2,60416,0,6249,0.00000,0.00000,0.00000,0,0,nan,0,0,0,60425,187491,0,0,0.000,0.000,0.000,0,0.000,0.000,0.000,0,0,4,0,0
PPG,1,94930,3798751552,24,491,501,0.000,0.000,0.000,0,0,0,0,0.00,nan,4,3,1,nan,3,3,24,1,1,18,18,0,0,0,3799950937,0.04102,0.00854,0.95264,0.95356,-0.00585,-0.00081,-0.00141,0.00607,0.95356,0.00174,0.00607,1,11847,0,6249,0.00000,0.00000,0.00000,0,0,nan,0,0,0,11746,187491,0,0,0.000,0.000,0.000,0,0.000,0.000,0.000,0,0,4,0,0
PPG,1,94931,3798791552,24,498,511,0.000,0.000,0.000,0,0,0,0,0.00,nan,4,3,1,nan,3,3,24,1,1,19,19,0,0,0,3799989522,0.03906,0.00586,0.94971,0.95053,-0.00505,-0.00028,-0.00221,0.00552,0.95484,0.00678,0.00668,3,12185,0,6249,0.00000,0.00000,0.00000,0,0,nan,0,0,0,2649,187491,0,0,0.000,0.000,0.000,0,0.000,0.000,0.000,0,0,4,0,0
PPG,1,94932,3798831552,23,506,519,0.000,0.000,0.000,0,0,0,0,0.00,nan,4,3,1,nan,3,3,24,1,1,20,20,0,0,0,3800028028,0.03711,0.00635,0.94482,0.94557,-0.00558,-0.00081,-0.00247,0.00616,0.95702,0.00649,0.00616,3,12137,0,6249,0.00000,0.00000,0.00000,0,0,nan,0,0,0,2610,187491,0,0,0.000,0.000,0.000,0,0.000,0.000,0.000,0,0,4,0,0
PPG,1,94933,3798871552,23,495,502,0.000,0.000,0.000,0,0,0,0,0.00,nan,4,3,1,nan,3,3,24,1,1,21,21,0,0,0,3800066616,0.03735,0.00342,0.95020,0.95094,-0.00638,-0.00215,-0.00247,0.00717,0.95720,0.01162,0.00717,3,12120,0,6249,0.00000,0.00000,0.00000,0,0,nan,0,0,0,2601,187491,0,0,0.000,0.000,0.000,0,0.000,0.000,0.000,0,0,4,0,0
PPG,1,94934,3798911552,25,502,501,0.000,0.000,0.000,0,0,0,0,0.00,nan,4,3,1,nan,3,3,24,1,1,22,22,0,0,0,3800105313,0.04321,0.00952,0.94849,0.94952,-0.00612,-0.00081,-0.00167,0.00639,0.95525,0.00573,0.00701,3,12138,0,6249,0.00000,0.00000,0.00000,0,0,nan,0,0,0,4310,187491,0,0,0.000,0.000,0.000,0,0.000,0.000,0.000,0,0,4,0,0
PPG,1,94935,3798951552,25,498,509,0.000,0.000,0.000,0,0,0,0,0.00,nan,4,3,1,nan,3,3,24,1,1,23,23,0,0,0,3800144217,0.03955,0.00610,0.95581,0.95665,-0.00505,-0.00135,-0.00167,0.00549,0.95665,0.00400,0.00758,3,12222,0,6249,0.00000,0.00000,0.00000,0,0,nan,0,0,0,4343,187491,0,0,0.000,0.000,0.000,0,0.000,0.000,0.000,0,0,4,0,0
PPG,1,94936,3798991552,26,501,513,0.000,0.000,0.000,0,0,0,0,0.00,nan,4,3,1,nan,3,3,24,1,1,24,24,0,0,0,3800183170,0.03418,0.00659,0.95679,0.95742,-0.00505,-0.00055,-0.00300,0.00590,0.95742,0.00876,0.00590,3,12317,0,6249,0.00000,0.00000,0.00000,0,0,nan,0,0,0,2638,187491,0,0,0.000,0.000,0.000,0,0.000,0.000,0.000,0,0,4,0,0
PPG,1,94937,3799031552,25,497,513,0.000,0.000,0.000,0,0,0,0,0.00,nan,4,3,1,nan,3,3,24,1,1,25,25,0,0,0,3800224680,0.03857,0.00586,0.95386,0.95466,-0.00558,-0.00081,-0.00167,0.00589,0.95635,0.00830,0.00619,3,12269,0,6249,0.00000,0.00000,0.00000,0,0,nan,0,0,0,4320,187491,0,0,0.000,0.000,0.000,0,0.000,0.000,0.000,0,0,4,0,0
PPG,1,94938,3799071552,25,496,506,0.000,0.000,0.000,0,0,0,0,0.00,nan,4,3,1,nan,3,3,24,1,1,26,26,0,0,0,3800263581,0.03638,0.00635,0.95825,0.95896,-0.00638,-0.00001,-0.00034,0.00639,0.95896,0.00943,0.00639,3,12259,0,6249,0.00000,0.00000,0.00000,0,0,nan,0,0,0,2625,187491,0,0,0.000,0.000,0.000,0,0.000,0.000,0.000,0,0,4,0,0
PPG,1,94939,3799111552,34,486,506,0.000,0.000,0.000,0,0,0,0,0.00,nan,4,3,1,nan,3,3,24,1,1,27,27,0,0,0,3800305048,0.04443,0.00171,0.95020,0.95124,-0.00638,-0.00081,-0.00114,0.00654,0.95470,0.01287,0.00654,3,12206,0,6249,0.00000,0.00000,0.00000,0,0,nan,0,0,0,4343,187491,0,0,0.000,0.000,0.000,0,0.000,0.000,0.000,0,0,4,0,0
PPG,1,94940,3799151552,25,485,499,0.000,0.000,0.000,0,0,0,0,0.00,nan,4,3,1,nan,3,3,24,1,1,28,28,0,0,0,3800343955,0.03687,0.00488,0.95166,0.95239,-0.00585,-0.00028,-0.00061,0.00589,0.95239,0.00389,0.00589,3,12259,0,6249,0.00000,0.00000,0.00000,0,0,nan,0,0,0,4338,187491,0,0,0.000,0.000,0.000,0,0.000,0.000,0.000,0,0,4,0,0
PPG,1,94941,3799191552,26,497,501,0.000,0.000,0.000,0,0,0,0,0.00,nan,4,3,1,nan,3,3,24,1,1,29,29,0,0,0,3800382815,0.04028,0.00806,0.95288,0.95377,-0.00505,-0.00001,-0.00141,0.00524,0.95377,0.00283,0.00524,3,12238,0,6249,0.00000,0.00000,0.00000,0,0,nan,0,0,0,2614,187491,0,0,0.000,0.000,0.000,0,0.000,0.000,0.000,0,0,4,0,0
PPG,1,94942,3799231552,26,498,510,0.000,0.000,0.000,0,0,0,0,0.00,nan,4,3,1,nan,3,3,24,1,1,30,30,0,0,0,3800424314,0.03882,0.01001,0.95459,0.95543,-0.00558,-0.00135,-0.00194,0.00606,0.95543,0.00808,0.00611,3,12281,0,6249,0.00000,0.00000,0.00000,0,0,nan,0,0,0,4348,187491,0,0,0.000,0.000,0.000,0,0.000,0.000,0.000,0,0,4,0,0
PPG,1,94943,3799271552,26,484,517,0.000,0.000,0.000,0,0,0,0,0.00,nan,4,3,1,nan,3,3,24,1,1,31,31,0,0,0,3800463198,0.04175,0.00269,0.95483,0.95575,-0.00585,-0.00055,-0.00194,0.00619,0.95575,0.00864,0.00689,3,12219,0,6249,0.00000,0.00000,0.00000,0,0,nan,0,0,0,2619,187491,0,0,0.000,0.000,0.000,0,0.000,0.000,0.000,0,0,4,0,0
PPG,1,94944,3799311552,26,499,505,0.000,0.000,0.000,0,0,0,0,0.00,nan,4,3,1,nan,3,3,24,1,1,0,0,0,0,0,3800504664,0.03394,0.00464,0.95117,0.95179,-0.00665,-0.00108,-0.00194,0.00701,0.95362,0.00213,0.00701,3,12259,0,6249,0.00000,0.00000,0.00000,0,0,nan,0,0,0,4329,187491,0,0,0.000,0.000,0.000,0,0.000,0.000,0.000,0,0,4,0,0
PPG,1,94945,3799351552,26,478,504,0.000,0.000,0.000,0,0,0,0,0.00,nan,4,3,1,nan,3,3,24,1,1,1,1,0,0,0,3800543585,0.03906,0.00391,0.95483,0.95564,-0.00665,-0.00055,-0.00194,0.00695,0.95564,0.00378,0.00695,3,12289,0,6249,0.00000,0.00000,0.00000,0,0,nan,0,0,0,2632,187491,0,0,0.000,0.000,0.000,0,0.000,0.000,0.000,0,0,4,0,0
PPG,1,94946,3799391552,24,489,514,0.000,0.000,0.000,0,0,0,0,0.00,nan,4,3,1,nan,3,3,24,1,1,2,2,0,0,0,3800589189,0.04004,0.00391,0.95264,0.95349,-0.00665,-0.00028,-0.00114,0.00675,0.95569,0.00860,0.00726,3,12275,0,6249,0.00000,0.00000,0.00000,0,0,nan,0,0,0,2622,187491,0,0,0.000,0.000,0.000,0,0.000,0.000,0.000,0,0,4,0,0
PPG,1,94947,3799431552,24,490,507,0.000,0.000,0.000,0,0,0,0,0.00,nan,4,3,1,nan,3,3,24,1,1,3,3,0,0,0,3800628063,0.03662,0.00635,0.94751,0.94824,-0.00665,-0.00055,-0.00114,0.00677,0.95249,0.00425,0.00677,3,12249,0,6249,0.00000,0.00000,0.00000,0,0,nan,0,0,0,2618,187491,0,0,0.000,0.000,0.000,0,0.000,0.000,0.000,0,0,4,0,0
PPG,1,94948,3799471552,24,498,504,0.000,0.000,0.000,0,0,0,0,0.00,nan,4,3,1,nan,3,3,24,1,1,4,4,0,0,0,3800666864,0.04053,0.00781,0.95825,0.95914,-0.00585,-0.00028,-0.00167,0.00609,0.95914,0.00749,0.00649,3,12239,0,6249,0.00000,0.00000,0.00000,0,0,nan,0,0,0,2610,187491,0,0,0.000,0.000,0.000,0,0.000,0.000,0.000,0,0,4,0,0
PPG,1,94949,3799511552,26,495,493,0.000,0.000,0.000,0,0,0,0,0.00,nan,4,3,1,nan,3,3,24,1,1,5,5,0,0,0,3800705687,0.03955,0.00537,0.95752,0.95835,-0.00638,-0.00055,-0.00194,0.00669,0.95835,0.00684,0.00685,3,12242,0,6249,0.00000,0.00000,0.00000,0,0,nan,0,0,0,4323,187491,0,0,0.000,0.000,0.000,0,0.000,0.000,0.000,0,0,4,0,0
PPG,1,94950,3799551552,25,481,507,0.000,0.000,0.000,0,0,0,0,0.00,nan,4,3,1,nan,3,3,24,1,1,6,6,0,0,0,3800744500,0.03857,0.01147,0.94946,0.95032,-0.00558,-0.00081,-0.00141,0.00582,0.95531,0.00995,0.00648,3,12159,0,6249,0.00000,0.00000,0.00000,0,0,nan,0,0,0,4295,187491,0,0,0.000,0.000,0.000,0,0.000,0.000,0.000,0,0,4,0,0
PPG,1,94951,3799591552,25,494,506,0.000,0.000,0.000,0,0,0,0,0.00,nan,4,3,1,nan,3,3,24,1,1,7,7,0,0,0,3800783227,0.03809,0.00342,0.95483,0.95560,-0.00638,-0.00081,-0.00007,0.00644,0.95560,0.00484,0.00663,3,12128,0,6249,0.00000,0.00000,0.00000,0,0,nan,0,0,0,2605,187491,0,0,0.000,0.000,0.000,0,0.000,0.000,0.000,0,0,4,0,0
PPG,1,94952,3799631552,25,498,516,0.000,0.000,0.000,0,0,0,0,0.00,nan,4,3,1,nan,3,3,24,1,1,8,8,0,0,0,3800824411,0.03809,0.00195,0.95142,0.95218,-0.00638,-0.00081,-0.00194,0.00672,0.95635,0.00579,0.00672,3,12119,0,6249,0.00000,0.00000,0.00000,0,0,nan,0,0,0,4296,187491,0,0,0.000,0.000,0.000,0,0.000,0.000,0.000,0,0,4,0,0
PPG,1,94953,3799671552,25,501,516,0.000,0.000,0.000,0,0,0,0,0.00,nan,4,3,1,nan,3,3,24,1,1,9,9,0,0,0,3800863014,0.03882,0.00464,0.95752,0.95832,-0.00585,-0.00081,-0.00141,0.00607,0.95832,0.00513,0.00649,3,12163,0,6249,0.00000,0.00000,0.00000,0,0,nan,0,0,0,2596,187491,0,0,0.000,0.000,0.000,0,0.000,0.000,0.000,0,0,4,0,0
PPG,1,94954,3799711552,29,477,497,0.000,0.000,0.000,0,0,0,0,0.00,nan,4,3,1,nan,3,3,24,1,1,10,10,0,0,0,3800904121,0.03979,0.00732,0.95679,0.95764,-0.00532,-0.00108,-0.00061,0.00546,0.95777,0.00378,0.00675,3,12120,0,6249,0.00000,0.00000,0.00000,0,0,nan,0,0,0,4296,187491,0,0,0.000,0.000,0.000,0,0.000,0.000,0.000,0,0,4,0,0
PPG,1,94955,3799751552,25,498,489,0.000,0.000,0.000,0,0,0,0,0.00,nan,4,3,1,nan,3,3,24,1,1,11,11,0,0,0,3800942680,0.03564,0.00464,0.95605,0.95673,-0.00612,-0.00055,-0.00141,0.00630,0.95673,0.01078,0.00630,3,12158,0,6249,0.00000,0.00000,0.00000,0,0,nan,0,0,0,2627,187491,0,0,0.000,0.000,0.000,0,0.000,0.000,0.000,0,0,4,0,0
PPG,1,94956,3799791552,25,497,507,0.000,0.000,0.000,0,0,0,0,0.00,nan,4,3,1,nan,3,3,24,1,1,12,12,0,0,0,3800983828,0.04102,0.00366,0.95435,0.95523,-0.00638,-0.00081,-0.00114,0.00654,0.95523,0.00384,0.00654,3,12120,0,6249,0.00000,0.00000,0.00000,0,0,nan,0,0,0,2602,187491,0,0,0.000,0.000,0.000,0,0.000,0.000,0.000,0,0,4,0,0
PPG,1,94957,3799831552,25,500,508,0.000,0.000,0.000,0,0,0,0,0.00,nan,4,3,1,nan,3,3,24,1,1,13,13,0,0,0,3801024948,0.04053,0.00806,0.95386,0.95475,-0.00638,-0.00001,-0.00247,0.00685,0.95475,0.00558,0.00685,3,12113,0,6249,0.00000,0.00000,0.00000,0,0,nan,0,0,0,4299,187491,0,0,0.000,0.000,0.000,0,0.000,0.000,0.000,0,0,4,0,0
PPG,1,94958,3799871552,29,502,511,0.000,0.000,0.000,0,0,0,0,0.00,nan,4,3,1,nan,3,3,24,1,1,14,14,0,0,0,3801063511,0.03564,0.00366,0.94482,0.94550,-0.00638,-0.00028,-0.00247,0.00685,0.95046,0.01217,0.00685,3,12108,0,6249,0.00000,0.00000,0.00000,0,0,nan,0,0,0,2600,187491,0,0,0.000,0.000,0.000,0,0.000,0.000,0.000,0,0,4,0,0
PPG,1,94959,3799911552,25,481,504,0.000,0.000,0.000,0,0,0,0,0.00,nan,4,3,1,nan,3,3,24,1,1,15,15,0,0,0,3801104629,0.03589,0.00684,0.95020,0.95090,-0.00612,-0.00135,-0.00167,0.00648,0.95090,0.00332,0.00653,3,12115,0,6249,0.00000,0.00000,0.00000,0,0,nan,0,0,0,4296,187491,0,0,0.000,0.000,0.000,0,0.000,0.000,0.000,0,0,4,0,0
PPG,1,94960,3799951552,37,487,490,0.000,0.000,0.000,0,0,0,0,0.00,nan,4,3,1,nan,3,3,24,1,1,16,16,0,0,0,3801143139,0.03857,0.01001,0.95068,0.95152,-0.00532,-0.00108,-0.00141,0.00561,0.95152,0.00239,0.00669,3,12115,0,6249,0.00000,0.00000,0.00000,0,0,nan,0,0,0,2631,187491,0,0,0.000,0.000,0.000,0,0.000,0.000,0.000,0,0,4,0,0
PPG,1,94961,3799991552,25,495,501,0.000,0.000,0.000,0,0,0,0,0.00,nan,4,3,1,nan,3,3,24,1,1,17,17,0,0,0,3801184435,0.03491,0.01001,0.95068,0.95138,-0.00585,0.00052,-0.00167,0.00611,0.95889,0.00751,0.00633,3,12124,0,6249,0.00000,0.00000,0.00000,0,0,nan,0,0,0,4301,187491,0,0,0.000,0.000,0.000,0,0.000,0.000,0.000,0,0,4,0,0
PPG,1,94962,3800031552,25,505,517,0.000,0.000,0.000,0,0,0,0,0.00,nan,4,3,1,nan,3,3,24,1,1,18,18,0,0,0,3801222976,0.04224,0.00342,0.95093,0.95187,-0.00505,-0.00055,-0.00194,0.00544,0.95187,0.00339,0.00558,3,12137,0,6249,0.00000,0.00000,0.00000,0,0,nan,0,0,0,2600,187491,0,0,0.000,0.000,0.000,0,0.000,0.000,0.000,0,0,4,0,0
PPG,1,94963,3800071552,25,490,511,0.000,0.000,0.000,0,0,0,0,0.00,nan,4,3,1,nan,3,3,24,1,1,19,19,0,0,0,3801264142,0.03662,0.00366,0.95068,0.95140,-0.00585,-0.00001,-0.00141,0.00602,0.95415,0.00325,0.00628,3,12131,0,6249,0.00000,0.00000,0.00000,0,0,nan,0,0,0,4297,187491,0,0,0.000,0.000,0.000,0,0.000,0.000,0.000,0,0,4,0,0
PPG,1,94964,3800111552,25,487,506,0.000,0.000,0.000,0,0,0,0,0.00,nan,4,3,1,nan,3,3,24,1,1,20,20,0,0,0,3801302664,0.03711,0.00513,0.95093,0.95167,-0.00425,-0.00135,-0.00087,0.00454,0.95213,0.00168,0.00577,3,12124,0,6249,0.00000,0.00000,0.00000,0,0,nan,0,0,0,2604,187491,0,0,0.000,0.000,0.000,0,0.000,0.000,0.000,0,0,4,0,0
PPG,1,94965,3800151552,25,490,501,0.000,0.000,0.000,0,0,0,0,0.00,nan,4,3,1,nan,3,3,24,1,1,21,21,0,0,0,3801343787,0.03760,0.00586,0.95166,0.95242,-0.00612,0.00052,-0.00221,0.00652,0.95562,0.00724,0.00673,3,12117,0,6249,0.00000,0.00000,0.00000,0,0,nan,0,0,0,2597,187491,0,0,0.000,0.000,0.000,0,0.000,0.000,0.000,0,0,4,0,0
PPG,1,94966,3800191552,25,487,503,0.000,0.000,0.000,0,0,0,0,0.00,nan,4,3,1,nan,3,3,24,1,1,22,22,0,0,0,3801384902,0.03784,0.00610,0.94995,0.95072,-0.00638,-0.00055,-0.00247,0.00687,0.95301,0.00189,0.00693,3,12121,0,6249,0.00000,0.00000,0.00000,0,0,nan,0,0,0,4297,187491,0,0,0.000,0.000,0.000,0,0.000,0.000,0.000,0,0,4,0,0
PPG,1,94967,3800231552,25,490,509,0.000,0.000,0.000,0,0,0,0,0.00,nan,4,3,1,nan,3,3,24,1,1,23,23,0,0,0,3801423413,0.04224,0.00635,0.95410,0.95506,-0.00718,0.00052,-0.00167,0.00739,0.95848,0.00630,0.00739,3,12120,0,6249,0.00000,0.00000,0.00000,0,0,nan,0,0,0,2597,187491,0,0,0.000,0.000,0.000,0,0.000,0.000,0.000,0,0,4,0,0
PPG,1,94968,3800271552,25,501,509,0.000,0.000,0.000,0,0,0,0,0.00,nan,4,3,1,nan,3,3,24,1,1,24,24,0,0,0,3801464575,0.03833,0.00464,0.95337,0.95415,-0.00638,-0.00055,-0.00141,0.00656,0.95696,0.00297,0.00703,3,12168,0,6249,0.00000,0.00000,0.00000,0,0,nan,0,0,0,4298,187491,0,0,0.000,0.000,0.000,0,0.000,0.000,0.000,0,0,4,0,0
PPG,1,94969,3800311552,25,498,511,0.000,0.000,0.000,0,0,0,0,0.00,nan,4,3,1,nan,3,3,24,1,1,25,25,0,0,0,3801503110,0.03809,0.00317,0.95093,0.95170,-0.00585,0.00025,-0.00194,0.00617,0.95419,0.00144,0.00631,3,12132,0,6249,0.00000,0.00000,0.00000,0,0,nan,0,0,0,2602,187491,0,0,0.000,0.000,0.000,0,0.000,0.000,0.000,0,0,4,0,0
PPG,1,94970,3800351552,25,485,502,0.000,0.000,0.000,0,0,0,0,0.00,nan,4,3,1,nan,3,3,24,1,1,26,26,0,0,0,3801544273,0.04126,0.00854,0.94873,0.94967,-0.00479,-0.00001,-0.00167,0.00507,0.95230,0.00264,0.00695,3,12126,0,6249,0.00000,0.00000,0.00000,0,0,nan,0,0,0,4303,187491,0,0,0.000,0.000,0.000,0,0.000,0.000,0.000,0,0,4,0,0
PPG,1,94971,3800391552,23,485,491,0.000,0.000,0.000,0,0,0,0,0.00,nan,4,3,1,nan,3,3,24,1,1,27,27,0,0,0,3801589593,0.03516,0.00977,0.95386,0.95456,-0.00638,-0.00001,-0.00167,0.00660,0.95456,0.00325,0.00660,3,12163,0,6249,0.00000,0.00000,0.00000,0,0,nan,0,0,0,2595,187491,0,0,0.000,0.000,0.000,0,0.000,0.000,0.000,0,0,4,0,0
PPG,1,94972,3800431552,23,486,497,0.000,0.000,0.000,0,0,0,0,0.00,nan,4,3,1,nan,3,3,24,1,1,28,28,0,0,0,3801628137,0.04199,0.00415,0.95020,0.95113,-0.00558,-0.00028,-0.00141,0.00577,0.95611,0.00629,0.00647,3,12114,0,6249,0.00000,0.00000,0.00000,0,0,nan,0,0,0,2598,187491,0,0,0.000,0.000,0.000,0,0.000,0.000,0.000,0,0,4,0,0
PPG,1,94973,3800471552,24,487,505,0.000,0.000,0.000,0,0,0,0,0.00,nan,4,3,1,nan,3,3,24,1,1,29,29,0,0,0,3801666698,0.03955,0.00854,0.95459,0.95545,-0.00585,-0.00108,-0.00087,0.00601,0.95545,0.00409,0.00601,3,12176,0,6249,0.00000,0.00000,0.00000,0,0,nan,0,0,0,2608,187491,0,0,0.000,0.000,0.000,0,0.000,0.000,0.000,0,0,4,0,0
PPG,1,94974,3800511552,25,500,516,0.000,0.000,0.000,0,0,0,0,0.00,nan,4,3,1,nan,3,3,24,1,1,30,30,0,0,0,3801705201,0.04102,0.00586,0.95239,0.95329,-0.00612,-0.00001,0.00019,0.00612,0.95436,0.00589,0.00685,3,12133,0,6249,0.00000,0.00000,0.00000,0,0,nan,0,0,0,4296,187491,0,0,0.000,0.000,0.000,0,0.000,0.000,0.000,0,0,4,0,0
PPG,1,94975,3800551552,25,494,518,0.000,0.000,0.000,0,0,0,0,0.00,nan,4,3,1,nan,3,3,24,1,1,31,31,0,0,0,3801743745,0.03735,0.00464,0.94922,0.94996,-0.00665,-0.00108,-0.00194,0.00701,0.95695,0.00524,0.00701,3,12129,0,6249,0.00000,0.00000,0.00000,0,0,nan,0,0,0,2609,187491,0,0,0.000,0.000,0.000,0,0.000,0.000,0.000,0,0,4,0,0
PPG,1,94976,3800591552,25,480,504,0.000,0.000,0.000,0,0,0,0,0.00,nan,4,3,1,nan,3,3,24,1,1,0,0,0,0,0,3801784890,0.03857,0.00537,0.94849,0.94929,-0.00665,-0.00001,-0.00167,0.00686,0.95179,0.00445,0.00686,3,12122,0,6249,0.00000,0.00000,0.00000,0,0,nan,0,0,0,4295,187491,0,0,0.000,0.000,0.000,0,0.000,0.000,0.000,0,0,4,0,0
PPG,1,94977,3800631552,26,493,500,0.000,0.000,0.000,0,0,0,0,0.00,nan,4,3,1,nan,3,3,24,1,1,1,1,0,0,0,3801823400,0.03589,0.00732,0.95605,0.95676,-0.00585,0.00025,-0.00194,0.00617,0.95676,0.00518,0.00724,3,12117,0,6249,0.00000,0.00000,0.00000,0,0,nan,0,0,0,2599,187491,0,0,0.000,0.000,0.000,0,0.000,0.000,0.000,0,0,4,0,0
PPG,1,94978,3800671552,39,493,507,0.000,0.000,0.000,0,0,0,0,0.00,nan,4,3,1,nan,3,3,24,1,1,2,2,0,0,0,3801864527,0.03613,0.00854,0.94971,0.95043,-0.00638,-0.00081,-0.00274,0.00699,0.95582,0.00626,0.00699,3,12143,0,6249,0.00000,0.00000,0.00000,0,0,nan,0,0,0,4302,187491,0,0,0.000,0.000,0.000,0,0.000,0.000,0.000,0,0,4,0,0
PPG,1,94979,3800711552,29,500,514,0.000,0.000,0.000,0,0,0,0,0.00,nan,4,3,1,nan,3,3,24,1,1,3,3,0,0,0,3801903531,0.04126,0.00732,0.94604,0.94697,-0.00585,-0.00001,-0.00141,0.00602,0.95413,0.00490,0.00701,3,12235,0,6249,0.00000,0.00000,0.00000,0,0,nan,0,0,0,2601,187491,0,0,0.000,0.000,0.000,0,0.000,0.000,0.000,0,0,4,0,0
PPG,1,94980,3800751552,25,499,517,0.000,0.000,0.000,0,0,0,0,0.00,nan,4,3,1,nan,3,3,24,1,1,4,4,0,0,0,3801944693,0.04004,0.00439,0.95190,0.95276,-0.00505,-0.00055,-0.00194,0.00544,0.95797,0.00849,0.00595,3,12117,0,6249,0.00000,0.00000,0.00000,0,0,nan,0,0,0,4297,187491,0,0,0.000,0.000,0.000,0,0.000,0.000,0.000,0,0,4,0,0
PPG,1,94981,3800791552,25,488,522,0.000,0.000,0.000,0,0,0,0,0.00,nan,4,3,1,nan,3,3,24,1,1,5,5,0,0,0,3801983285,0.03833,0.00537,0.95166,0.95245,-0.00505,-0.00001,-0.00194,0.00541,0.95707,0.00462,0.00685,3,12166,0,6249,0.00000,0.00000,0.00000,0,0,nan,0,0,0,2594,187491,0,0,0.000,0.000,0.000,0,0.000,0.000,0.000,0,0,4,0,0
PPG,1,94982,3800831552,32,483,502,0.000,0.000,0.000,0,0,0,0,0.00,nan,4,3,1,nan,3,3,24,1,1,6,6,0,0,0,3802024481,0.04004,0.00757,0.95215,0.95302,-0.00585,-0.00001,-0.00141,0.00602,0.95302,0.00899,0.00628,3,12104,0,6249,0.00000,0.00000,0.00000,0,0,nan,0,0,0,4294,187491,0,0,0.000,0.000,0.000,0,0.000,0.000,0.000,0,0,4,0,0
PPG,1,94983,3800871552,29,501,512,0.000,0.000,0.000,0,0,0,0,0.00,nan,4,3,1,nan,3,3,24,1,1,7,7,0,0,0,3802063147,0.04199,0.00439,0.94751,0.94845,-0.00558,-0.00055,-0.00194,0.00594,0.95991,0.00689,0.00594,3,12121,0,6249,0.00000,0.00000,0.00000,0,0,nan,0,0,0,2709,187491,0,0,0.000,0.000,0.000,0,0.000,0.000,0.000,0,0,4,0,0
PPG,1,94984,3800911552,26,483,507,0.000,0.000,0.000,0,0,0,0,0.00,nan,4,3,1,nan,3,3,24,1,1,8,8,0,0,0,3802104840,0.04102,0.00708,0.94604,0.94696,-0.00612,-0.00135,-0.00114,0.00637,0.95415,0.00700,0.00637,3,12243,0,6249,0.00000,0.00000,0.00000,0,0,nan,0,0,0,4344,187491,0,0,0.000,0.000,0.000,0,0.000,0.000,0.000,0,0,4,0,0
PPG,1,94985,3800951552,26,495,505,0.000,0.000,0.000,0,0,0,0,0.00,nan,4,3,1,nan,3,3,24,1,1,9,9,0,0,0,3802143738,0.03687,0.00757,0.95288,0.95362,-0.00638,-0.00081,-0.00087,0.00649,0.95493,0.00460,0.00665,3,12264,0,6249,0.00000,0.00000,0.00000,0,0,nan,0,0,0,2628,187491,0,0,0.000,0.000,0.000,0,0.000,0.000,0.000,0,0,4,0,0
PPG,1,94986,3800991552,25,491,512,0.000,0.000,0.000,0,0,0,0,0.00,nan,4,3,1,nan,3,3,24,1,1,10,10,0,0,0,3802185241,0.03662,0.00659,0.95093,0.95166,-0.00612,-0.00001,-0.00194,0.00642,0.95220,0.00400,0.00642,3,12239,0,6249,0.00000,0.00000,0.00000,0,0,nan,0,0,0,4341,187491,0,0,0.000,0.000,0.000,0,0.000,0.000,0.000,0,0,4,0,0
PPG,1,94987,3801031552,25,488,511,0.000,0.000,0.000,0,0,0,0,0.00,nan,4,3,1,nan,3,3,24,1,1,11,11,0,0,0,3802224154,0.03638,0.00342,0.94824,0.94895,-0.00612,-0.00055,-0.00247,0.00662,0.95883,0.00730,0.00691,3,12254,0,6249,0.00000,0.00000,0.00000,0,0,nan,0,0,0,4334,187491,0,0,0.000,0.000,0.000,0,0.000,0.000,0.000,0,0,4,0,0
PPG,1,94988,3801071552,25,503,503,0.000,0.000,0.000,0,0,0,0,0.00,nan,4,3,1,nan,3,3,24,1,1,12,12,0,0,0,3802262972,0.03491,0.01123,0.94995,0.95066,-0.00638,-0.00028,-0.00167,0.00661,0.95066,0.00391,0.00661,3,12252,0,6249,0.00000,0.00000,0.00000,0,0,nan,0,0,0,2634,187491,0,0,0.000,0.000,0.000,0,0.000,0.000,0.000,0,0,4,0,0
PPG,1,94989,3801111552,26,496,500,0.000,0.000,0.000,0,0,0,0,0.00,nan,4,3,1,nan,3,3,24,1,1,13,13,0,0,0,3802304673,0.03906,0.00586,0.94897,0.94980,-0.00532,-0.00081,-0.00194,0.00572,0.95095,0.00227,0.00653,3,12252,0,6249,0.00000,0.00000,0.00000,0,0,nan,0,0,0,4334,187491,0,0,0.000,0.000,0.000,0,0.000,0.000,0.000,0,0,4,0,0
PPG,1,94990,3801151552,28,504,511,0.000,0.000,0.000,0,0,0,0,0.00,nan,4,3,1,nan,3,3,24,1,1,14,14,0,0,0,3802343474,0.03589,0.00708,0.94946,0.95017,-0.00585,-0.00055,-0.00141,0.00604,0.95990,0.01010,0.00614,3,12210,0,6249,0.00000,0.00000,0.00000,0,0,nan,0,0,0,2637,187491,0,0,0.000,0.000,0.000,0,0.000,0.000,0.000,0,0,4,0,0
PPG,1,94991,3801191552,26,485,500,0.000,0.000,0.000,0,0,0,0,0.00,nan,4,3,1,nan,3,3,24,1,1,15,15,0,0,0,3802385072,0.03760,0.00513,0.95239,0.95315,-0.00665,-0.00081,-0.00141,0.00685,0.95315,0.00235,0.00685,3,12296,0,6249,0.00000,0.00000,0.00000,0,0,nan,0,0,0,4341,187491,0,0,0.000,0.000,0.000,0,0.000,0.000,0.000,0,0,4,0,0
PPG,1,94992,3801231552,25,498,506,0.000,0.000,0.000,0,0,0,0,0.00,nan,4,3,1,nan,3,3,24,1,1,16,16,0,0,0,3802423860,0.04297,0.00757,0.95435,0.95534,-0.00505,-0.00028,-0.00194,0.00542,0.95540,0.00993,0.00667,3,12203,0,6249,0.00000,0.00000,0.00000,0,0,nan,0,0,0,2620,187491,0,0,0.000,0.000,0.000,0,0.000,0.000,0.000,0,0,4,0,0
PPG,1,94993,3801271552,25,488,515,0.000,0.000,0.000,0,0,0,0,0.00,nan,4,3,1,nan,3,3,24,1,1,17,17,0,0,0,3802465304,0.04126,0.00757,0.95581,0.95673,-0.00612,-0.00081,-0.00194,0.00647,0.95853,0.00642,0.00660,3,12231,0,6249,0.00000,0.00000,0.00000,0,0,nan,0,0,0,4349,187491,0,0,0.000,0.000,0.000,0,0.000,0.000,0.000,0,0,4,0,0
PPG,1,94994,3801311552,25,487,507,0.000,0.000,0.000,0,0,0,0,0.00,nan,4,3,1,nan,3,3,24,1,1,18,18,0,0,0,3802504182,0.03467,0.00781,0.95190,0.95257,-0.00532,-0.00055,-0.00087,0.00542,0.95549,0.00751,0.00726,3,12236,0,6249,0.00000,0.00000,0.00000,0,0,nan,0,0,0,4336,187491,0,0,0.000,0.000,0.000,0,0.000,0.000,0.000,0,0,4,0,0
PPG,1,94995,3801351552,25,490,513,0.000,0.000,0.000,0,0,0,0,0.00,nan,4,3,1,nan,3,3,24,1,1,19,19,0,0,0,3802542992,0.03857,0.00806,0.94873,0.94955,-0.00532,-0.00028,-0.00221,0.00576,0.95179,0.00494,0.00576,3,12220,0,6249,0.00000,0.00000,0.00000,0,0,nan,0,0,0,2630,187491,0,0,0.000,0.000,0.000,0,0.000,0.000,0.000,0,0,4,0,0
PPG,1,94996,3801391552,26,489,509,0.000,0.000,0.000,0,0,0,0,0.00,nan,4,3,1,nan,3,3,24,1,1,20,20,0,0,0,3802578946,0.04321,0.00562,0.95117,0.95217,-0.00558,0.00025,-0.00167,0.00583,0.95217,0.00365,0.00597,2,19008,0,6249,0.00000,0.00000,0.00000,0,0,nan,0,0,0,2656,187491,0,0,0.000,0.000,0.000,0,0.000,0.000,0.000,0,0,4,0,0
PPG,1,94997,3801431552,25,492,513,0.000,0.000,0.000,0,0,0,0,0.00,nan,4,3,1,nan,3,3,24,1,1,21,21,0,0,0,3802623174,0.03760,0.00317,0.95190,0.95265,-0.00638,-0.00108,-0.00167,0.00669,0.95265,0.00362,0.00669,3,12239,0,6249,0.00000,0.00000,0.00000,0,0,nan,0,0,0,2631,187491,0,0,0.000,0.000,0.000,0,0.000,0.000,0.000,0,0,4,0,0
PPG,1,94998,3801471552,25,491,515,0.000,0.000,0.000,0,0,0,0,0.00,nan,4,3,1,nan,3,3,24,1,1,22,22,0,0,0,3802664675,0.04102,0.00317,0.94751,0.94840,-0.00558,-0.00188,-0.00141,0.00606,0.95055,0.00296,0.00663,3,12235,0,6249,0.00000,0.00000,0.00000,0,0,nan,0,0,0,4315,187491,0,0,0.000,0.000,0.000,0,0.000,0.000,0.000,0,0,4,0,0
PPG,1,94999,3801511552,37,494,501,0.000,0.000,0.000,0,0,0,0,0.00,nan,4,3,1,nan,3,3,24,1,1,23,23,0,0,0,3802703390,0.03979,0.00464,0.94873,0.94958,-0.00585,0.00079,-0.00167,0.00614,0.95842,0.01237,0.00639,3,12120,0,6249,0.00000,0.00000,0.00000,0,0,nan,0,0,0,2640,187491,0,0,0.000,0.000,0.000,0,0.000,0.000,0.000,0,0,4,0,0
PPG,1,95000,3801551552,26,477,501,0.000,0.000,0.000,0,0,0,0,0.00,nan,4,3,1,nan,3,3,24,1,1,24,24,0,0,0,3802744755,0.03760,0.00488,0.95239,0.95315,-0.00585,-0.00055,-0.00061,0.00591,0.95547,0.00589,0.00626,3,12129,0,6249,0.00000,0.00000,0.00000,0,0,nan,0,0,0,4294,187491,0,0,0.000,0.000,0.000,0,0.000,0.000,0.000,0,0,4,0,0
PPG,1,95001,3801591552,38,499,512,0.000,0.000,0.000,0,0,0,0,0.00,nan,4,3,1,nan,3,3,24,1,1,25,25,0,0,0,3802783299,0.03687,0.00537,0.94849,0.94922,-0.00585,-0.00001,-0.00221,0.00625,0.95935,0.00706,0.00662,3,12122,0,6249,0.00000,0.00000,0.00000,0,0,nan,0,0,0,2604,187491,0,0,0.000,0.000,0.000,0,0.000,0.000,0.000,0,0,4,0,0
PPG,1,95002,3801631552,25,486,513,0.000,0.000,0.000,0,0,0,0,0.00,nan,4,3,1,nan,3,3,24,1,1,26,26,0,0,0,3802824575,0.04150,0.00659,0.95239,0.95332,-0.00505,-0.00028,-0.00141,0.00525,0.95739,0.00818,0.00604,3,12122,0,6249,0.00000,0.00000,0.00000,0,0,nan,0,0,0,4298,187491,0,0,0.000,0.000,0.000,0,0.000,0.000,0.000,0,0,4,0,0
PPG,1,95003,3801671552,25,486,497,0.000,0.000,0.000,0,0,0,0,0.00,nan,4,3,1,nan,3,3,24,1,1,27,27,0,0,0,3802863110,0.04150,0.00171,0.95142,0.95232,-0.00638,-0.00055,-0.00087,0.00647,0.95739,0.00548,0.00647,3,12132,0,6249,0.00000,0.00000,0.00000,0,0,nan,0,0,0,2602,187491,0,0,0.000,0.000,0.000,0,0.000,0.000,0.000,0,0,4,0,0
PPG,1,95004,3801711552,25,492,508,0.000,0.000,0.000,0,0,0,0,0.00,nan,4,3,1,nan,3,3,24,1,1,28,28,0,0,0,3802904320,0.03589,0.00635,0.95239,0.95309,-0.00665,0.00079,-0.00194,0.00697,0.95437,0.00218,0.00790,3,12163,0,6249,0.00000,0.00000,0.00000,0,0,nan,0,0,0,4301,187491,0,0,0.000,0.000,0.000,0,0.000,0.000,0.000,0,0,4,0,0
PPG,1,95005,3801751552,25,503,514,0.000,0.000,0.000,0,0,0,0,0.00,nan,4,3,1,nan,3,3,24,1,1,29,29,0,0,0,3802942838,0.03809,0.00610,0.95166,0.95244,-0.00532,0.00079,-0.00141,0.00556,0.95474,0.00721,0.00566,3,12122,0,6249,0.00000,0.00000,0.00000,0,0,nan,0,0,0,2602,187491,0,0,0.000,0.000,0.000,0,0.000,0.000,0.000,0,0,4,0,0
PPG,1,95006,3801791552,25,484,505,0.000,0.000,0.000,0,0,0,0,0.00,nan,4,3,1,nan,3,3,24,1,1,30,30,0,0,0,3802983965,0.03906,0.00610,0.95264,0.95346,-0.00665,-0.00108,-0.00221,0.00709,0.95346,0.00157,0.00714,3,12125,0,6249,0.00000,0.00000,0.00000,0,0,nan,0,0,0,2624,187491,0,0,0.000,0.000,0.000,0,0.000,0.000,0.000,0,0,4,0,0
PPG,1,95007,3801831552,28,472,507,0.000,0.000,0.000,0,0,0,0,0.00,nan,4,3,1,nan,3,3,24,1,1,31,31,0,0,0,3803025116,0.04053,0.00464,0.95361,0.95449,-0.00558,0.00025,-0.00114,0.00571,0.96002,0.00777,0.00651,3,12122,0,6249,0.00000,0.00000,0.00000,0,0,nan,0,0,0,4300,187491,0,0,0.000,0.000,0.000,0,0.000,0.000,0.000,0,0,4,0,0
PPG,1,95008,3801871552,26,495,492,0.000,0.000,0.000,0,0,0,0,0.00,nan,4,3,1,nan,3,3,24,1,1,0,0,0,0,0,3803063639,0.04077,0.00684,0.94971,0.95061,-0.00638,-0.00028,-0.00034,0.00640,0.96080,0.01019,0.00654,3,12121,0,6249,0.00000,0.00000,0.00000,0,0,nan,0,0,0,2613,187491,0,0,0.000,0.000,0.000,0,0.000,0.000,0.000,0,0,4,0,0
PPG,1,95009,3801911552,25,495,505,0.000,0.000,0.000,0,0,0,0,0.00,nan,4,3,1,nan,3,3,24,1,1,1,1,0,0,0,3803104818,0.03857,0.00708,0.94702,0.94783,-0.00558,-0.00055,-0.00221,0.00603,0.95247,0.00464,0.00617,3,12164,0,6249,0.00000,0.00000,0.00000,0,0,nan,0,0,0,4312,187491,0,0,0.000,0.000,0.000,0,0.000,0.000,0.000,0,0,4,0,0
PPG,1,95010,3801951552,25,499,518,0.000,0.000,0.000,0,0,0,0,0.00,nan,4,3,1,nan,3,3,24,1,1,2,2,0,0,0,3803143342,0.03906,0.00708,0.94995,0.95078,-0.00612,-0.00001,-0.00087,0.00618,0.95078,0.00253,0.00623,3,12112,0,6249,0.00000,0.00000,0.00000,0,0,nan,0,0,0,2606,187491,0,0,0.000,0.000,0.000,0,0.000,0.000,0.000,0,0,4,0,0
PPG,1,95011,3801991552,25,493,514,0.000,0.000,0.000,0,0,0,0,0.00,nan,4,3,1,nan,3,3,24,1,1,3,3,0,0,0,3803184478,0.03955,0.00391,0.94995,0.95078,-0.00665,-0.00001,-0.00247,0.00709,0.95720,0.00997,0.00709,3,12114,0,6249,0.00000,0.00000,0.00000,0,0,nan,0,0,0,4295,187491,0,0,0.000,0.000,0.000,0,0.000,0.000,0.000,0,0,4,0,0
PPG,1,95012,3802031552,25,477,510,0.000,0.000,0.000,0,0,0,0,0.00,nan,4,3,1,nan,3,3,24,1,1,4,4,0,0,0,3803223346,0.04272,0.00415,0.95093,0.95190,-0.00585,-0.00081,-0.00167,0.00614,0.95421,0.00352,0.00614,3,12298,0,6249,0.00000,0.00000,0.00000,0,0,nan,0,0,0,2595,187491,0,0,0.000,0.000,0.000,0,0.000,0.000,0.000,0,0,4,0,0
PPG,1,95013,3802071552,26,491,517,0.000,0.000,0.000,0,0,0,0,0.00,nan,4,3,1,nan,3,3,24,1,1,5,5,0,0,0,3803264509,0.03613,0.00732,0.95020,0.95091,-0.00638,-0.00081,-0.00141,0.00659,0.95591,0.00570,0.00727,3,12169,0,6249,0.00000,0.00000,0.00000,0,0,nan,0,0,0,4298,187491,0,0,0.000,0.000,0.000,0,0.000,0.000,0.000,0,0,4,0,0
